nm,INT
500.0,36
500.1,35
500.2,34
500.3,33
500.4,32
500.5,31
500.6,30
500.7,29
500.8,28
500.9,26
501.0,25
501.1,24
501.2,23
501.3,22
501.4,21
501.5,20
501.6,19
501.7,18
501.8,17
501.9,17
502.0,16
502.1,16
502.2,15
502.3,15
502.4,14
502.5,14
502.6,14
502.7,13
502.8,13
502.9,13
503.0,13
503.1,12
503.2,12
503.3,12
503.4,11
503.5,11
503.6,11
503.7,10
503.8,10
503.9,10
504.0,9
504.1,9
504.2,9
504.3,8
504.4,8
504.5,7
504.6,7
504.7,7
504.8,6
504.9,6
505.0,5
505.1,5
505.2,4
505.3,4
505.4,3
505.5,3
505.6,2
505.7,2
505.8,2
505.9,1
506.0,1
506.1,1
506.2,0
506.3,0
506.4,0
506.5,0
506.6,0
506.7,0
506.8,0
506.9,0
507.0,1
507.1,1
507.2,2
507.3,2
507.4,3
507.5,4
507.6,5
507.7,6
507.8,8
507.9,10
508.0,11
508.1,13
508.2,15
508.3,18
508.4,20
508.5,22
508.6,25
508.7,28
508.8,30
508.9,33
509.0,36
509.1,39
509.2,42
509.3,45
509.4,48
509.5,51
509.6,55
509.7,58
509.8,61
509.9,65
510.0,69
510.1,72
510.2,76
510.3,80
510.4,84
510.5,87
510.6,91
510.7,94
510.8,98
510.9,101
511.0,105
511.1,109
511.2,112
511.3,115
511.4,119
511.5,123
511.6,126
511.7,129
511.8,133
511.9,136
512.0,139
512.1,142
512.2,145
512.3,148
512.4,150
512.5,153
512.6,155
512.7,156
512.8,158
512.9,159
513.0,161
513.1,162
513.2,162
513.3,163
513.4,163
513.5,164
513.6,164
513.7,165
513.8,165
513.9,166
514.0,166
514.1,166
514.2,167
514.3,167
514.4,167
514.5,167
514.6,167
514.7,167
514.8,167
514.9,167
515.0,166
515.1,166
515.2,165
515.3,165
515.4,165
515.5,165
515.6,164
515.7,164
515.8,164
515.9,164
516.0,164
516.1,163
516.2,163
516.3,163
516.4,163
516.5,162
516.6,162
516.7,162
516.8,162
516.9,162
517.0,162
517.1,162
517.2,162
517.3,162
517.4,162
517.5,163
517.6,163
517.7,164
517.8,164
517.9,165
518.0,166
518.1,168
518.2,169
518.3,170
518.4,172
518.5,173
518.6,175
518.7,177
518.8,179
518.9,180
519.0,182
519.1,185
519.2,187
519.3,190
519.4,194
519.5,197
519.6,202
519.7,207
519.8,212
519.9,218
520.0,223
520.1,230
520.2,236
520.3,243
520.4,250
520.5,258
520.6,265
520.7,273
520.8,281
520.9,290
521.0,300
521.1,309
521.2,319
521.3,330
521.4,341
521.5,352
521.6,364
521.7,376
521.8,388
521.9,401
522.0,413
522.1,426
522.2,440
522.3,454
522.4,468
522.5,483
522.6,498
522.7,513
522.8,529
522.9,544
523.0,560
523.1,576
523.2,592
523.3,609
523.4,625
523.5,642
523.6,657
523.7,674
523.8,690
523.9,707
524.0,724
524.1,741
524.2,757
524.3,774
524.4,790
524.5,807
524.6,823
524.7,838
524.8,854
524.9,870
525.0,885
525.1,901
525.2,916
525.3,932
525.4,948
525.5,964
525.6,980
525.7,996
525.8,1012
525.9,1028
526.0,1043
526.1,1059
526.2,1074
526.3,1089
526.4,1103
526.5,1118
526.6,1132
526.7,1145
526.8,1158
526.9,1172
527.0,1185
527.1,1199
527.2,1212
527.3,1225
527.4,1239
527.5,1252
527.6,1265
527.7,1278
527.8,1292
527.9,1306
528.0,1320
528.1,1334
528.2,1348
528.3,1361
528.4,1376
528.5,1391
528.6,1406
528.7,1421
528.8,1436
528.9,1452
529.0,1467
529.1,1484
529.2,1500
529.3,1516
529.4,1533
529.5,1550
529.6,1567
529.7,1585
529.8,1603
529.9,1620
530.0,1639
530.1,1658
530.2,1677
530.3,1697
530.4,1717
530.5,1737
530.6,1757
530.7,1777
530.8,1798
530.9,1819
531.0,1840
531.1,1862
531.2,1883
531.3,1905
531.4,1926
531.5,1948
531.6,1971
531.7,1993
531.8,2016
531.9,2039
532.0,2062
532.1,2085
532.2,2108
532.3,2132
532.4,2155
532.5,2178
532.6,2201
532.7,2224
532.8,2246
532.9,2267
533.0,2290
533.1,2312
533.2,2335
533.3,2356
533.4,2378
533.5,2399
533.6,2421
533.7,2442
533.8,2464
533.9,2486
534.0,2508
534.1,2531
534.2,2553
534.3,2576
534.4,2599
534.5,2621
534.6,2645
534.7,2668
534.8,2692
534.9,2716
535.0,2740
535.1,2764
535.2,2787
535.3,2811
535.4,2835
535.5,2859
535.6,2884
535.7,2908
535.8,2932
535.9,2957
536.0,2980
536.1,3004
536.2,3030
536.3,3055
536.4,3081
536.5,3107
536.6,3135
536.7,3162
536.8,3190
536.9,3219
537.0,3248
537.1,3278
537.2,3308
537.3,3339
537.4,3371
537.5,3403
537.6,3432
537.7,3463
537.8,3496
537.9,3529
538.0,3561
538.1,3594
538.2,3628
538.3,3661
538.4,3696
538.5,3732
538.6,3766
538.7,3802
538.8,3838
538.9,3874
539.0,3912
539.1,3948
539.2,3983
539.3,4020
539.4,4057
539.5,4095
539.6,4134
539.7,4174
539.8,4213
539.9,4252
540.0,4293
540.1,4335
540.2,4377
540.3,4419
540.4,4461
540.5,4504
540.6,4547
540.7,4589
540.8,4632
540.9,4677
541.0,4721
541.1,4767
541.2,4812
541.3,4859
541.4,4907
541.5,4954
541.6,5001
541.7,5048
541.8,5096
541.9,5144
542.0,5193
542.1,5240
542.2,5285
542.3,5332
542.4,5382
542.5,5431
542.6,5480
542.7,5530
542.8,5580
542.9,5630
543.0,5681
543.1,5733
543.2,5786
543.3,5838
543.4,5891
543.5,5943
543.6,5998
543.7,6049
543.8,6099
543.9,6151
544.0,6203
544.1,6256
544.2,6310
544.3,6365
544.4,6418
544.5,6471
544.6,6524
544.7,6576
544.8,6631
544.9,6685
545.0,6738
545.1,6791
545.2,6844
545.3,6894
545.4,6946
545.5,7001
545.6,7055
545.7,7109
545.8,7163
545.9,7221
546.0,7278
546.1,7335
546.2,7392
546.3,7451
546.4,7510
546.5,7569
546.6,7631
546.7,7694
546.8,7755
546.9,7816
547.0,7879
547.1,7944
547.2,8009
547.3,8073
547.4,8139
547.5,8205
547.6,8273
547.7,8343
547.8,8415
547.9,8489
548.0,8563
548.1,8637
548.2,8714
548.3,8797
548.4,8881
548.5,8964
548.6,9046
548.7,9130
548.8,9216
548.9,9303
549.0,9395
549.1,9487
549.2,9579
549.3,9672
549.4,9767
549.5,9863
549.6,9962
549.7,10063
549.8,10162
549.9,10263
550.0,10366
550.1,10471
550.2,10580
550.3,10692
550.4,10803
550.5,10917
550.6,11032
550.7,11150
550.8,11272
550.9,11395
551.0,11517
551.1,11640
551.2,11765
551.3,11890
551.4,12018
551.5,12148
551.6,12275
551.7,12404
551.8,12533
551.9,12664
552.0,12799
552.1,12935
552.2,13069
552.3,13203
552.4,13338
552.5,13474
552.6,13614
552.7,13759
552.8,13906
552.9,14044
553.0,14183
553.1,14322
553.2,14463
553.3,14607
553.4,14752
553.5,14894
553.6,15037
553.7,15180
553.8,15323
553.9,15470
554.0,15618
554.1,15763
554.2,15908
554.3,16054
554.4,16206
554.5,16358
554.6,16508
554.7,16659
554.8,16810
554.9,16962
555.0,17115
555.1,17272
555.2,17431
555.3,17585
555.4,17739
555.5,17894
555.6,18054
555.7,18213
555.8,18370
555.9,18527
556.0,18686
556.1,18845
556.2,19006
556.3,19172
556.4,19342
556.5,19507
556.6,19674
556.7,19843
556.8,20013
556.9,20190
557.0,20371
557.1,20550
557.2,20745
557.3,20927
557.4,21111
557.5,21302
557.6,21496
557.7,21685
557.8,21876
557.9,22069
558.0,22263
558.1,22465
558.2,22668
558.3,22866
558.4,23066
558.5,23269
558.6,23474
558.7,23687
558.8,23902
558.9,24113
559.0,24326
559.1,24542
559.2,24759
559.3,24985
559.4,25212
559.5,25435
559.6,25659
559.7,25886
559.8,26115
559.9,26354
560.0,26594
560.1,26829
560.2,27065
560.3,27304
560.4,27545
560.5,27794
560.6,28045
560.7,28289
560.8,28533
560.9,28778
561.0,29024
561.1,29279
561.2,29534
561.3,29782
561.4,30032
561.5,30283
561.6,30552
561.7,30812
561.8,31073
561.9,31339
562.0,31595
562.1,31852
562.2,32111
562.3,32370
562.4,32638
562.5,32909
562.6,33171
562.7,33434
562.8,33697
562.9,33973
563.0,34247
563.1,34514
563.2,34781
563.3,35049
563.4,35319
563.5,35589
563.6,35868
563.7,36151
563.8,36424
563.9,36698
564.0,36972
564.1,37259
564.2,37545
564.3,37823
564.4,38103
564.5,38385
564.6,38668
564.7,38952
564.8,39247
564.9,39547
565.0,39837
565.1,40128
565.2,40421
565.3,40716
565.4,41022
565.5,41332
565.6,41631
565.7,41933
565.8,42237
565.9,42563
566.0,42893
566.1,43215
566.2,43526
566.3,43840
566.4,44157
566.5,44475
566.6,44807
566.7,45141
566.8,45464
566.9,45787
567.0,46112
567.1,46438
567.2,46777
567.3,47118
567.4,47447
567.5,47776
567.6,48108
567.7,48441
567.8,48788
567.9,49137
568.0,49474
568.1,49813
568.2,50153
568.3,50493
568.4,50847
568.5,51200
568.6,51540
568.7,51880
568.8,52219
568.9,52558
569.0,52909
569.1,53260
569.2,53598
569.3,53936
569.4,54273
569.5,54611
569.6,54962
569.7,55312
569.8,55650
569.9,55987
570.0,56323
570.1,56658
570.2,57007
570.3,57368
570.4,57726
570.5,58063
570.6,58400
570.7,58737
570.8,59074
570.9,59423
571.0,59777
571.1,60115
571.2,60454
571.3,60790
571.4,61142
571.5,61489
571.6,61823
571.7,62158
571.8,62493
571.9,62829
572.0,63166
572.1,63516
572.2,63872
572.3,64213
572.4,64557
572.5,64902
572.6,65265
572.7,65625
572.8,65975
572.9,66326
573.0,66678
573.1,67032
573.2,67386
573.3,67754
573.4,68129
573.5,68489
573.6,68851
573.7,69216
573.8,69583
573.9,69963
574.0,70351
574.1,70723
574.2,71097
574.3,71474
574.4,71869
574.5,72261
574.6,72642
574.7,73027
574.8,73446
574.9,73834
575.0,74223
575.1,74631
575.2,75039
575.3,75434
575.4,75830
575.5,76228
575.6,76629
575.7,77048
575.8,77469
575.9,77874
576.0,78280
576.1,78689
576.2,79100
576.3,79530
576.4,79962
576.5,80378
576.6,80796
576.7,81215
576.8,81635
576.9,82076
577.0,82518
577.1,82935
577.2,83326
577.3,83747
577.4,84171
577.5,84594
577.6,85020
577.7,85445
577.8,85838
577.9,86279
578.0,86706
578.1,87107
578.2,87534
578.3,87929
578.4,88372
578.5,88818
578.6,89237
578.7,89633
578.8,90063
578.9,90497
579.0,90929
579.1,91361
579.2,91797
579.3,92269
579.4,92702
579.5,93135
579.6,93593
579.7,94066
579.8,94525
579.9,94956
580.0,95387
580.1,95818
580.2,96275
580.3,96746
580.4,97202
580.5,97630
580.6,98058
580.7,98525
580.8,98956
580.9,99417
581.0,99868
581.1,100306
581.2,100763
581.3,101190
581.4,101616
581.5,102073
581.6,102547
581.7,103000
581.8,103427
581.9,103859
582.0,104327
582.1,104756
582.2,105185
582.3,105647
582.4,106124
582.5,106581
582.6,107010
582.7,107439
582.8,107868
582.9,108323
583.0,108803
583.1,109268
583.2,109706
583.3,110171
583.4,110602
583.5,111032
583.6,111504
583.7,111984
583.8,112437
583.9,112867
584.0,113296
584.1,113723
584.2,114181
584.3,114619
584.4,115080
584.5,115555
584.6,115987
584.7,116456
584.8,116885
584.9,117314
585.0,117784
585.1,118270
585.2,118728
585.3,119159
585.4,119588
585.5,120053
585.6,120490
585.7,120962
585.8,121435
585.9,121872
586.0,122337
586.1,122768
586.2,123199
586.3,123629
586.4,124120
586.5,124622
586.6,125051
586.7,125479
586.8,125907
586.9,126366
587.0,126806
587.1,127273
587.2,127768
587.3,128227
587.4,128655
587.5,129084
587.6,129515
587.7,129970
587.8,130461
587.9,130949
588.0,131382
588.1,131816
588.2,132285
588.3,132728
588.4,133214
588.5,133701
588.6,134147
588.7,134621
588.8,135058
588.9,135495
589.0,135931
589.1,136431
589.2,136942
589.3,137374
589.4,137802
589.5,138265
589.6,138690
589.7,139108
589.8,139568
589.9,140053
590.0,140494
590.1,140902
590.2,141307
590.3,141708
590.4,142185
590.5,142647
590.6,143040
590.7,143430
590.8,143818
590.9,144234
591.0,144621
591.1,145051
591.2,145493
591.3,145887
591.4,146255
591.5,146618
591.6,146977
591.7,147356
591.8,147776
591.9,148179
592.0,148524
592.1,148866
592.2,149236
592.3,149576
592.4,149976
592.5,150357
592.6,150698
592.7,151054
592.8,151383
592.9,151712
593.0,152064
593.1,152467
593.2,152842
593.3,153168
593.4,153497
593.5,153850
593.6,154174
593.7,154498
593.8,154881
593.9,155276
594.0,155624
594.1,155952
594.2,156282
594.3,156616
594.4,156975
594.5,157387
594.6,157790
594.7,158139
594.8,158490
594.9,158879
595.0,159243
595.1,159675
595.2,160107
595.3,160494
595.4,160862
595.5,161231
595.6,161603
595.7,162003
595.8,162387
595.9,162812
596.0,163257
596.1,163636
596.2,164047
596.3,164425
596.4,164804
596.5,165247
596.6,165704
596.7,166112
596.8,166495
596.9,166880
597.0,167298
597.1,167693
597.2,168145
597.3,168598
597.4,168997
597.5,169421
597.6,169812
597.7,170201
597.8,170588
597.9,171048
598.0,171520
598.1,171899
598.2,172275
598.3,172648
598.4,173046
598.5,173425
598.6,173846
598.7,174288
598.8,174655
598.9,175050
599.0,175411
599.1,175769
599.2,176144
599.3,176569
599.4,176997
599.5,177344
599.6,177686
599.7,178053
599.8,178393
599.9,178794
600.0,179192
600.1,179527
600.2,179881
600.3,180206
600.4,180529
600.5,180850
600.6,181249
600.7,181661
600.8,181979
600.9,182295
601.0,182638
601.1,182951
601.2,183260
601.3,183626
601.4,184022
601.5,184349
601.6,184650
601.7,184949
601.8,185243
601.9,185628
602.0,185994
602.1,186277
602.2,186557
602.3,186834
602.4,187130
602.5,187406
602.6,187749
602.7,188090
602.8,188363
602.9,188653
603.0,188921
603.1,189190
603.2,189475
603.3,189826
603.4,190165
603.5,190428
603.6,190687
603.7,190963
603.8,191212
603.9,191541
604.0,191840
604.1,192079
604.2,192322
604.3,192544
604.4,192759
604.5,192969
604.6,193267
604.7,193546
604.8,193744
604.9,193940
605.0,194148
605.1,194335
605.2,194520
605.3,194776
605.4,195038
605.5,195227
605.6,195404
605.7,195580
605.8,195756
605.9,195942
606.0,196198
606.1,196446
606.2,196617
606.3,196787
606.4,196972
606.5,197143
606.6,197400
606.7,197631
606.8,197803
606.9,197981
607.0,198146
607.1,198311
607.2,198488
607.3,198657
607.4,198884
607.5,199136
607.6,199301
607.7,199479
607.8,199644
607.9,199809
608.0,200051
608.1,200302
608.2,200481
608.3,200651
608.4,200823
608.5,200997
608.6,201182
608.7,201439
608.8,201691
608.9,201868
609.0,202058
609.1,202233
609.2,202409
609.3,202586
609.4,202841
609.5,203110
609.6,203285
609.7,203460
609.8,203633
609.9,203817
610.0,203988
610.1,204216
610.2,204467
610.3,204625
610.4,204791
610.5,204940
610.6,205086
610.7,205308
610.8,205531
610.9,205678
611.0,205814
611.1,205947
611.2,206086
611.3,206213
611.4,206411
611.5,206606
611.6,206720
611.7,206838
611.8,206944
611.9,207047
612.0,207148
612.1,207322
612.2,207510
612.3,207604
612.4,207697
612.5,207785
612.6,207875
612.7,207954
612.8,208092
612.9,208253
613.0,208320
613.1,208380
613.2,208433
613.3,208485
613.4,208624
613.5,208748
613.6,208801
613.7,208853
613.8,208906
613.9,208963
614.0,209017
614.1,209148
614.2,209278
614.3,209331
614.4,209389
614.5,209442
614.6,209494
614.7,209546
614.8,209673
614.9,209817
615.0,209874
615.1,209932
615.2,209996
615.3,210055
615.4,210203
615.5,210324
615.6,210379
615.7,210436
615.8,210488
615.9,210540
616.0,210592
616.1,210733
616.2,210861
616.3,210916
616.4,210972
616.5,211027
616.6,211085
616.7,211139
616.8,211268
616.9,211395
617.0,211440
617.1,211477
617.2,211509
617.3,211539
617.4,211566
617.5,211669
617.6,211769
617.7,211789
617.8,211806
617.9,211823
618.0,211837
618.1,211940
618.2,212015
618.3,212022
618.4,212025
618.5,212026
618.6,212024
618.7,212019
618.8,212014
618.9,212071
619.0,212154
619.1,212146
619.2,212136
619.3,212126
619.4,212116
619.5,212184
619.6,212251
619.7,212242
619.8,212232
619.9,212222
620.0,212213
620.1,212205
620.2,212276
620.3,212348
620.4,212345
620.5,212345
620.6,212346
620.7,212347
620.8,212348
620.9,212420
621.0,212508
621.1,212511
621.2,212515
621.3,212522
621.4,212530
621.5,212537
621.6,212609
621.7,212709
621.8,212721
621.9,212739
622.0,212759
622.1,212780
622.2,212879
622.3,212979
622.4,213003
622.5,213027
622.6,213051
622.7,213076
622.8,213102
622.9,213202
623.0,213300
623.1,213319
623.2,213338
623.3,213353
623.4,213365
623.5,213375
623.6,213452
623.7,213540
623.8,213542
623.9,213540
624.0,213533
624.1,213523
624.2,213512
624.3,213564
624.4,213638
624.5,213621
624.6,213600
624.7,213577
624.8,213550
624.9,213603
625.0,213641
625.1,213608
625.2,213573
625.3,213532
625.4,213483
625.5,213433
625.6,213457
625.7,213479
625.8,213422
625.9,213360
626.0,213299
626.1,213235
626.2,213169
626.3,213166
626.4,213175
626.5,213105
626.6,213033
626.7,212957
626.8,212874
626.9,212881
627.0,212865
627.1,212783
627.2,212697
627.3,212615
627.4,212532
627.5,212449
627.6,212441
627.7,212421
627.8,212335
627.9,212249
628.0,212163
628.1,212071
628.2,211986
628.3,211977
628.4,211970
628.5,211889
628.6,211805
628.7,211730
628.8,211660
628.9,211588
629.0,211594
629.1,211602
629.2,211538
629.3,211474
629.4,211406
629.5,211345
629.6,211370
629.7,211372
629.8,211311
629.9,211247
630.0,211185
630.1,211124
630.2,211064
630.3,211000
630.4,210997
630.5,211020
630.6,210957
630.7,210892
630.8,210821
630.9,210754
631.0,210761
631.1,210765
631.2,210696
631.3,210630
631.4,210567
631.5,210505
631.6,210440
631.7,210449
631.8,210461
631.9,210401
632.0,210343
632.1,210281
632.2,210224
632.3,210168
632.4,210171
632.5,210197
632.6,210138
632.7,210084
632.8,210032
632.9,209977
633.0,209924
633.1,209932
633.2,209962
633.3,209908
633.4,209849
633.5,209795
633.6,209740
633.7,209755
633.8,209765
633.9,209701
634.0,209639
634.1,209577
634.2,209514
634.3,209447
634.4,209452
634.5,209457
634.6,209387
634.7,209315
634.8,209234
634.9,209155
635.0,209075
635.1,209051
635.2,209036
635.3,208945
635.4,208850
635.5,208751
635.6,208640
635.7,208530
635.8,208478
635.9,208445
636.0,208327
636.1,208193
636.2,208065
636.3,207930
636.4,207858
636.5,207776
636.6,207617
636.7,207463
636.8,207308
636.9,207135
637.0,206969
637.1,206873
637.2,206775
637.3,206604
637.4,206423
637.5,206256
637.6,206085
637.7,205912
637.8,205790
637.9,205674
638.0,205493
638.1,205311
638.2,205127
638.3,204927
638.4,204811
638.5,204676
638.6,204484
638.7,204290
638.8,204079
638.9,203884
639.0,203689
639.1,203554
639.2,203409
639.3,203212
639.4,203015
639.5,202821
639.6,202613
639.7,202420
639.8,202299
639.9,202180
640.0,201993
640.1,201796
640.2,201614
640.3,201431
640.4,201324
640.5,201185
640.6,200989
640.7,200799
640.8,200607
640.9,200396
641.0,200201
641.1,200084
641.2,199947
641.3,199752
641.4,199550
641.5,199362
641.6,199173
641.7,198986
641.8,198790
641.9,198651
642.0,198542
642.1,198360
642.2,198175
642.3,197974
642.4,197785
642.5,197662
642.6,197541
642.7,197353
642.8,197154
642.9,196969
643.0,196782
643.1,196582
643.2,196448
643.3,196321
643.4,196131
643.5,195941
643.6,195734
643.7,195545
643.8,195359
643.9,195227
644.0,195113
644.1,194920
644.2,194745
644.3,194574
644.4,194407
644.5,194235
644.6,194121
644.7,194039
644.8,193888
644.9,193732
645.0,193596
645.1,193467
645.2,193407
645.3,193348
645.4,193230
645.5,193123
645.6,193020
645.7,192921
645.8,192818
645.9,192782
646.0,192749
646.1,192656
646.2,192562
646.3,192460
646.4,192366
646.5,192273
646.6,192233
646.7,192211
646.8,192112
646.9,192019
647.0,191926
647.1,191829
647.2,191736
647.3,191697
647.4,191681
647.5,191593
647.6,191499
647.7,191415
647.8,191331
647.9,191310
648.0,191287
648.1,191199
648.2,191115
648.3,191029
648.4,190940
648.5,190842
648.6,190804
648.7,190767
648.8,190662
648.9,190547
649.0,190435
649.1,190320
649.2,190200
649.3,190127
649.4,190060
649.5,189930
649.6,189797
649.7,189660
649.8,189511
649.9,189437
650.0,189344
650.1,189198
650.2,189049
650.3,188887
650.4,188740
650.5,188592
650.6,188504
650.7,188410
650.8,188248
650.9,188095
651.0,187940
651.1,187771
651.2,187612
651.3,187515
651.4,187416
651.5,187248
651.6,187068
651.7,186900
651.8,186730
651.9,186628
652.0,186496
652.1,186307
652.2,186124
652.3,185939
652.4,185753
652.5,185554
652.6,185435
652.7,185300
652.8,185110
652.9,184913
653.0,184732
653.1,184553
653.2,184378
653.3,184193
653.4,184063
653.5,183962
653.6,183790
653.7,183619
653.8,183437
653.9,183268
654.0,183165
654.1,183063
654.2,182897
654.3,182723
654.4,182564
654.5,182407
654.6,182323
654.7,182211
654.8,182047
654.9,181893
655.0,181741
655.1,181575
655.2,181424
655.3,181277
655.4,181185
655.5,181114
655.6,180968
655.7,180836
655.8,180708
655.9,180581
656.0,180448
656.1,180371
656.2,180324
656.3,180205
656.4,180089
656.5,179965
656.6,179847
656.7,179797
656.8,179745
656.9,179629
657.0,179522
657.1,179415
657.2,179308
657.3,179191
657.4,179140
657.5,179090
657.6,178975
657.7,178860
657.8,178730
657.9,178607
658.0,178482
658.1,178409
658.2,178353
658.3,178215
658.4,178086
658.5,177955
658.6,177823
658.7,177681
658.8,177591
658.9,177526
659.0,177382
659.1,177221
659.2,177071
659.3,176920
659.4,176832
659.5,176738
659.6,176575
659.7,176422
659.8,176268
659.9,176117
660.0,175959
660.1,175873
660.2,175794
660.3,175651
660.4,175509
660.5,175356
660.6,175216
660.7,175080
660.8,174999
660.9,174931
661.0,174801
661.1,174671
661.2,174541
661.3,174406
661.4,174358
661.5,174294
661.6,174177
661.7,174062
661.8,173940
661.9,173831
662.0,173723
662.1,173683
662.2,173642
662.3,173533
662.4,173431
662.5,173328
662.6,173227
662.7,173118
662.8,173078
662.9,173040
663.0,172932
663.1,172816
663.2,172708
663.3,172596
663.4,172561
663.5,172494
663.6,172365
663.7,172242
663.8,172115
663.9,171988
664.0,171850
664.1,171795
664.2,171718
664.3,171584
664.4,171447
664.5,171299
664.6,171162
664.7,171023
664.8,170874
664.9,170778
665.0,170709
665.1,170557
665.2,170401
665.3,170231
665.4,170067
665.5,169975
665.6,169881
665.7,169715
665.8,169539
665.9,169377
666.0,169216
666.1,169138
666.2,169030
666.3,168865
666.4,168711
666.5,168557
666.6,168403
666.7,168239
666.8,168085
666.9,167997
667.0,167932
667.1,167783
667.2,167647
667.3,167513
667.4,167380
667.5,167242
667.6,167166
667.7,167122
667.8,166996
667.9,166870
668.0,166731
668.1,166599
668.2,166540
668.3,166482
668.4,166351
668.5,166212
668.6,166084
668.7,165953
668.8,165813
668.9,165747
669.0,165683
669.1,165546
669.2,165407
669.3,165250
669.4,165102
669.5,164953
669.6,164862
669.7,164787
669.8,164620
669.9,164461
670.0,164297
670.1,164132
670.2,163955
670.3,163836
670.4,163743
670.5,163561
670.6,163373
670.7,163163
670.8,162960
670.9,162828
671.0,162682
671.1,162452
671.2,162230
671.3,162003
671.4,161772
671.5,161523
671.6,161349
671.7,161180
671.8,160935
671.9,160688
672.0,160413
672.1,160156
672.2,159901
672.3,159705
672.4,159523
672.5,159243
672.6,158983
672.7,158721
672.8,158440
672.9,158254
673.0,158050
673.1,157786
673.2,157517
673.3,157227
673.4,156960
673.5,156692
673.6,156495
673.7,156285
673.8,155995
673.9,155721
674.0,155447
674.1,155173
674.2,154881
674.3,154667
674.4,154464
674.5,154191
674.6,153921
674.7,153630
674.8,153365
674.9,153187
675.0,152975
675.1,152703
675.2,152445
675.3,152189
675.4,151932
675.5,151657
675.6,151473
675.7,151270
675.8,151006
675.9,150737
676.0,150445
676.1,150177
676.2,149909
676.3,149714
676.4,149510
676.5,149230
676.6,148967
676.7,148707
676.8,148428
676.9,148168
677.0,147987
677.1,147809
677.2,147558
677.3,147296
677.4,147055
677.5,146819
677.6,146669
677.7,146488
677.8,146250
677.9,146026
678.0,145805
678.1,145584
678.2,145349
678.3,145125
678.4,144968
678.5,144835
678.6,144619
678.7,144389
678.8,144181
678.9,143977
679.0,143764
679.1,143617
679.2,143506
679.3,143314
679.4,143124
679.5,142920
679.6,142730
679.7,142613
679.8,142496
679.9,142303
680.0,142100
680.1,141914
680.2,141730
680.3,141550
680.4,141431
680.5,141330
680.6,141165
680.7,141006
680.8,140838
680.9,140686
681.0,140537
681.1,140448
681.2,140377
681.3,140216
681.4,140064
681.5,139908
681.6,139749
681.7,139576
681.8,139459
681.9,139370
682.0,139196
682.1,139020
682.2,138827
682.3,138642
682.4,138532
682.5,138422
682.6,138239
682.7,138045
682.8,137868
682.9,137695
683.0,137514
683.1,137409
683.2,137313
683.3,137147
683.4,136982
683.5,136801
683.6,136630
683.7,136457
683.8,136339
683.9,136236
684.0,136036
684.1,135845
684.2,135647
684.3,135446
684.4,135307
684.5,135154
684.6,134944
684.7,134732
684.8,134502
684.9,134292
685.0,134082
685.1,133943
685.2,133795
685.3,133571
685.4,133360
685.5,133149
685.6,132941
685.7,132720
685.8,132577
685.9,132442
686.0,132237
686.1,132032
686.2,131814
686.3,131614
686.4,131502
686.5,131370
686.6,131177
686.7,130980
686.8,130797
686.9,130618
687.0,130429
687.1,130333
687.2,130219
687.3,130049
687.4,129877
687.5,129691
687.6,129519
687.7,129346
687.8,129242
687.9,129131
688.0,128945
688.1,128772
688.2,128598
688.3,128424
688.4,128241
688.5,128136
688.6,128039
688.7,127874
688.8,127702
688.9,127547
689.0,127394
689.1,127323
689.2,127223
689.3,127067
689.4,126920
689.5,126773
689.6,126623
689.7,126460
689.8,126299
689.9,126197
690.0,126114
690.1,125948
690.2,125764
690.3,125592
690.4,125416
690.5,125306
690.6,125187
690.7,124995
690.8,124815
690.9,124636
691.0,124443
691.1,124261
691.2,124151
691.3,124042
691.4,123863
691.5,123674
691.6,123500
691.7,123328
691.8,123156
691.9,123038
692.0,122932
692.1,122762
692.2,122593
692.3,122428
692.4,122253
692.5,122087
692.6,121983
692.7,121898
692.8,121728
692.9,121569
693.0,121413
693.1,121258
693.2,121094
693.3,120987
693.4,120908
693.5,120749
693.6,120588
693.7,120412
693.8,120246
693.9,120148
694.0,120050
694.1,119880
694.2,119698
694.3,119529
694.4,119359
694.5,119191
694.6,119077
694.7,118976
694.8,118815
694.9,118655
695.0,118482
695.1,118323
695.2,118166
695.3,118064
695.4,117979
695.5,117809
695.6,117648
695.7,117484
695.8,117315
695.9,117204
696.0,117080
696.1,116903
696.2,116723
696.3,116540
696.4,116337
696.5,116144
696.6,116012
696.7,115871
696.8,115676
696.9,115472
697.0,115282
697.1,115076
697.2,114886
697.3,114689
697.4,114560
697.5,114432
697.6,114251
697.7,114064
697.8,113891
697.9,113705
698.0,113534
698.1,113354
698.2,113170
698.3,113046
698.4,112946
698.5,112766
698.6,112599
698.7,112421
698.8,112258
698.9,112088
699.0,111917
699.1,111809
699.2,111730
699.3,111577
699.4,111438
699.5,111290
699.6,111157
699.7,111020
699.8,110952
699.9,110889
700.0,110761
700.1,110638
700.2,110525
700.3,110404
700.4,110296
700.5,110183
700.6,110136
700.7,110089
700.8,109974
700.9,109861
701.0,109756
701.1,109643
701.2,109540
701.3,109431
701.4,109384
701.5,109336
701.6,109222
701.7,109109
701.8,109002
701.9,108883
702.0,108769
702.1,108644
702.2,108577
702.3,108507
702.4,108363
702.5,108217
702.6,108076
702.7,107917
702.8,107768
702.9,107609
703.0,107513
703.1,107415
703.2,107248
703.3,107084
703.4,106929
703.5,106759
703.6,106601
703.7,106434
703.8,106327
703.9,106219
704.0,106042
704.1,105866
704.2,105700
704.3,105515
704.4,105343
704.5,105159
704.6,105035
704.7,104910
704.8,104716
704.9,104527
705.0,104350
705.1,104158
705.2,103982
705.3,103802
705.4,103687
705.5,103578
705.6,103413
705.7,103260
705.8,103100
705.9,102944
706.0,102801
706.1,102652
706.2,102566
706.3,102480
706.4,102334
706.5,102197
706.6,102049
706.7,101902
706.8,101767
706.9,101629
707.0,101553
707.1,101482
707.2,101356
707.3,101240
707.4,101118
707.5,100999
707.6,100893
707.7,100784
707.8,100737
707.9,100691
708.0,100589
708.1,100494
708.2,100391
708.3,100286
708.4,100191
708.5,100090
708.6,100046
708.7,99999
708.8,99891
708.9,99788
709.0,99674
709.1,99559
709.2,99451
709.3,99339
709.4,99283
709.5,99225
709.6,99109
709.7,98996
709.8,98872
709.9,98746
710.0,98626
710.1,98497
710.2,98422
710.3,98342
710.4,98199
710.5,98059
710.6,97905
710.7,97748
710.8,97603
710.9,97447
711.0,97345
711.1,97241
711.2,97078
711.3,96923
711.4,96756
711.5,96590
711.6,96437
711.7,96276
711.8,96172
711.9,96068
712.0,95909
712.1,95759
712.2,95599
712.3,95452
712.4,95292
712.5,95126
712.6,95019
712.7,94909
712.8,94743
712.9,94585
713.0,94414
713.1,94254
713.2,94082
713.3,93907
713.4,93792
713.5,93679
713.6,93512
713.7,93353
713.8,93182
713.9,93026
714.0,92858
714.1,92688
714.2,92578
714.3,92469
714.4,92308
714.5,92158
714.6,91998
714.7,91852
714.8,91697
714.9,91539
715.0,91438
715.1,91338
715.2,91185
715.3,91041
715.4,90884
715.5,90739
715.6,90582
715.7,90422
715.8,90320
715.9,90219
716.0,90066
716.1,89921
716.2,89764
716.3,89619
716.4,89462
716.5,89305
716.6,89204
716.7,89105
716.8,88957
716.9,88818
717.0,88671
717.1,88541
717.2,88408
717.3,88277
717.4,88203
717.5,88132
717.6,88013
717.7,87904
717.8,87789
717.9,87687
718.0,87579
718.1,87532
718.2,87469
718.3,87365
718.4,87266
718.5,87175
718.6,87078
718.7,86989
718.8,86895
718.9,86859
719.0,86808
719.1,86719
719.2,86636
719.3,86560
719.4,86482
719.5,86416
719.6,86350
719.7,86294
719.8,86286
719.9,86289
720.0,86247
720.1,86210
720.2,86170
720.3,86134
720.4,86097
720.5,86061
720.6,86065
720.7,86075
720.8,86036
720.9,85999
721.0,85957
721.1,85918
721.2,85875
721.3,85832
721.4,85826
721.5,85823
721.6,85768
721.7,85714
721.8,85650
721.9,85587
722.0,85516
722.1,85499
722.2,85465
722.3,85390
722.4,85317
722.5,85246
722.6,85168
722.7,85094
722.8,85013
722.9,84987
723.0,84942
723.1,84852
723.2,84759
723.3,84667
723.4,84565
723.5,84469
723.6,84362
723.7,84256
723.8,84183
723.9,84106
724.0,83979
724.1,83854
724.2,83715
724.3,83582
724.4,83433
724.5,83284
724.6,83168
724.7,83056
724.8,82900
724.9,82733
725.0,82566
725.1,82412
725.2,82247
725.3,82089
725.4,81968
725.5,81853
725.6,81697
725.7,81529
725.8,81361
725.9,81206
726.0,81039
726.1,80929
726.2,80803
726.3,80640
726.4,80485
726.5,80322
726.6,80163
726.7,80021
726.8,79870
726.9,79776
727.0,79668
727.1,79525
727.2,79389
727.3,79245
727.4,79104
727.5,78973
727.6,78832
727.7,78697
727.8,78598
727.9,78509
728.0,78383
728.1,78250
728.2,78129
728.3,78001
728.4,77875
728.5,77761
728.6,77685
728.7,77619
728.8,77515
728.9,77407
729.0,77307
729.1,77201
729.2,77104
729.3,77006
729.4,76941
729.5,76888
729.6,76793
729.7,76691
729.8,76594
729.9,76486
730.0,76383
730.1,76317
730.2,76244
730.3,76136
730.4,76020
730.5,75904
730.6,75797
730.7,75684
730.8,75578
730.9,75511
731.0,75440
731.1,75333
731.2,75220
731.3,75113
731.4,74993
731.5,74872
731.6,74757
731.7,74635
731.8,74543
731.9,74466
732.0,74337
732.1,74218
732.2,74090
732.3,73973
732.4,73852
732.5,73728
732.6,73641
732.7,73570
732.8,73450
732.9,73337
733.0,73215
733.1,73102
733.2,72984
733.3,72862
733.4,72774
733.5,72700
733.6,72576
733.7,72461
733.8,72336
733.9,72221
734.0,72099
734.1,72017
734.2,71934
734.3,71811
734.4,71693
734.5,71588
734.6,71478
734.7,71381
734.8,71280
734.9,71221
735.0,71165
735.1,71074
735.2,70989
735.3,70899
735.4,70808
735.5,70722
735.6,70630
735.7,70575
735.8,70519
735.9,70425
736.0,70334
736.1,70235
736.2,70143
736.3,70045
736.4,69945
736.5,69885
736.6,69824
736.7,69725
736.8,69630
736.9,69527
737.0,69433
737.1,69333
737.2,69237
737.3,69171
737.4,69108
737.5,69010
737.6,68918
737.7,68820
737.8,68729
737.9,68630
738.0,68535
738.1,68469
738.2,68407
738.3,68312
738.4,68210
738.5,68108
738.6,68014
738.7,67914
738.8,67820
738.9,67757
739.0,67702
739.1,67616
739.2,67527
739.3,67440
739.4,67364
739.5,67284
739.6,67250
739.7,67206
739.8,67133
739.9,67064
740.0,67000
740.1,66934
740.2,66876
740.3,66816
740.4,66799
740.5,66770
740.6,66711
740.7,66652
740.8,66597
740.9,66536
741.0,66480
741.1,66419
741.2,66355
741.3,66326
741.4,66296
741.5,66233
741.6,66173
741.7,66107
741.8,66047
741.9,65981
742.0,65912
742.1,65876
742.2,65837
742.3,65760
742.4,65683
742.5,65593
742.6,65507
742.7,65413
742.8,65315
742.9,65252
743.0,65185
743.1,65082
743.2,64983
743.3,64875
743.4,64762
743.5,64655
743.6,64537
743.7,64449
743.8,64355
743.9,64223
744.0,64095
744.1,63956
744.2,63815
744.3,63685
744.4,63547
744.5,63445
744.6,63345
744.7,63210
744.8,63078
744.9,62956
745.0,62824
745.1,62702
745.2,62573
745.3,62479
745.4,62386
745.5,62259
745.6,62137
745.7,62023
745.8,61903
745.9,61794
746.0,61679
746.1,61596
746.2,61511
746.3,61390
746.4,61271
746.5,61159
746.6,61035
746.7,60920
746.8,60801
746.9,60714
747.0,60630
747.1,60528
747.2,60426
747.3,60335
747.4,60238
747.5,60151
747.6,60060
747.7,59968
747.8,59903
747.9,59849
748.0,59756
748.1,59670
748.2,59574
748.3,59479
748.4,59392
748.5,59302
748.6,59236
748.7,59181
748.8,59089
748.9,59001
749.0,58903
749.1,58803
749.2,58710
749.3,58612
749.4,58537
749.5,58473
749.6,58371
749.7,58271
749.8,58180
749.9,58085
750.0,57998
750.1,57938
750.2,57874
750.3,57785
750.4,57690
750.5,57595
750.6,57506
750.7,57411
750.8,57315
750.9,57256
751.0,57186
751.1,57090
751.2,56997
751.3,56911
751.4,56819
751.5,56728
751.6,56644
751.7,56555
751.8,56462
751.9,56394
752.0,56334
752.1,56249
752.2,56158
752.3,56068
752.4,55986
752.5,55900
752.6,55813
752.7,55759
752.8,55707
752.9,55628
753.0,55552
753.1,55482
753.2,55407
753.3,55334
753.4,55267
753.5,55199
753.6,55154
753.7,55117
753.8,55055
753.9,54987
754.0,54919
754.1,54857
754.2,54790
754.3,54721
754.4,54678
754.5,54631
754.6,54559
754.7,54480
754.8,54399
754.9,54321
755.0,54235
755.1,54146
755.2,54062
755.3,54000
755.4,53941
755.5,53858
755.6,53783
755.7,53706
755.8,53632
755.9,53566
756.0,53499
756.1,53460
756.2,53420
756.3,53357
756.4,53289
756.5,53219
756.6,53153
756.7,53078
756.8,52999
756.9,52952
757.0,52894
757.1,52809
757.2,52722
757.3,52634
757.4,52551
757.5,52458
757.6,52363
757.7,52275
757.8,52183
757.9,52111
758.0,52047
758.1,51960
758.2,51869
758.3,51779
758.4,51698
758.5,51615
758.6,51530
758.7,51473
758.8,51414
758.9,51326
759.0,51239
759.1,51157
759.2,51069
759.3,50982
759.4,50900
759.5,50817
759.6,50753
759.7,50698
759.8,50620
759.9,50548
760.0,50469
760.1,50389
760.2,50313
760.3,50233
760.4,50175
760.5,50117
760.6,50040
760.7,49960
760.8,49882
760.9,49813
761.0,49742
761.1,49673
761.2,49611
761.3,49573
761.4,49540
761.5,49487
761.6,49439
761.7,49390
761.8,49343
761.9,49302
762.0,49259
762.1,49241
762.2,49219
762.3,49176
762.4,49132
762.5,49081
762.6,49025
762.7,48968
762.8,48901
762.9,48827
763.0,48775
763.1,48717
763.2,48628
763.3,48538
763.4,48453
763.5,48361
763.6,48268
763.7,48182
763.8,48094
763.9,48023
764.0,47960
764.1,47877
764.2,47791
764.3,47713
764.4,47629
764.5,47545
764.6,47492
764.7,47431
764.8,47350
764.9,47270
765.0,47194
765.1,47109
765.2,47022
765.3,46938
765.4,46849
765.5,46756
765.6,46685
765.7,46623
765.8,46532
765.9,46448
766.0,46358
766.1,46271
766.2,46193
766.3,46114
766.4,46053
766.5,46001
766.6,45930
766.7,45857
766.8,45785
766.9,45723
767.0,45659
767.1,45596
767.2,45561
767.3,45528
767.4,45476
767.5,45429
767.6,45378
767.7,45327
767.8,45282
767.9,45235
768.0,45187
768.1,45159
768.2,45139
768.3,45092
768.4,45043
768.5,44999
768.6,44950
768.7,44903
768.8,44854
768.9,44819
769.0,44787
769.1,44733
769.2,44673
769.3,44610
769.4,44551
769.5,44483
769.6,44412
769.7,44360
769.8,44306
769.9,44225
770.0,44140
770.1,44057
770.2,43960
770.3,43866
770.4,43764
770.5,43657
770.6,43566
770.7,43480
770.8,43359
770.9,43236
771.0,43119
771.1,42991
771.2,42859
771.3,42733
771.4,42619
771.5,42502
771.6,42366
771.7,42238
771.8,42102
771.9,41977
772.0,41845
772.1,41712
772.2,41605
772.3,41500
772.4,41372
772.5,41244
772.6,41115
772.7,40996
772.8,40868
772.9,40740
773.0,40615
773.1,40517
773.2,40423
773.3,40309
773.4,40197
773.5,40092
773.6,39992
773.7,39905
773.8,39814
773.9,39725
774.0,39640
774.1,39575
774.2,39521
774.3,39443
774.4,39369
774.5,39296
774.6,39226
774.7,39165
774.8,39101
774.9,39056
775.0,39006
775.1,38942
775.2,38879
775.3,38814
775.4,38749
775.5,38686
775.6,38625
775.7,38569
775.8,38513
775.9,38474
776.0,38444
776.1,38397
776.2,38353
776.3,38312
776.4,38267
776.5,38221
776.6,38174
776.7,38131
776.8,38103
776.9,38076
777.0,38030
777.1,37984
777.2,37940
777.3,37901
777.4,37858
777.5,37816
777.6,37774
777.7,37751
777.8,37727
777.9,37682
778.0,37635
778.1,37586
778.2,37536
778.3,37490
778.4,37440
778.5,37388
778.6,37354
778.7,37318
778.8,37268
778.9,37215
779.0,37163
779.1,37115
779.2,37066
779.3,37021
779.4,36974
779.5,36928
779.6,36900
779.7,36877
779.8,36837
779.9,36794
780.0,36750
780.1,36700
780.2,36648
780.3,36596
780.4,36558
780.5,36510
780.6,36443
780.7,36375
780.8,36309
780.9,36234
781.0,36159
781.1,36083
781.2,36009
781.3,35940
781.4,35885
781.5,35831
781.6,35760
781.7,35689
781.8,35620
781.9,35557
782.0,35490
782.1,35422
782.2,35354
782.3,35305
782.4,35254
782.5,35182
782.6,35112
782.7,35042
782.8,34970
782.9,34906
783.0,34837
783.1,34769
783.2,34702
783.3,34655
783.4,34617
783.5,34561
783.6,34508
783.7,34457
783.8,34409
783.9,34367
784.0,34325
784.1,34301
784.2,34275
784.3,34239
784.4,34204
784.5,34167
784.6,34130
784.7,34095
784.8,34063
784.9,34034
785.0,34005
785.1,33990
785.2,33979
785.3,33952
785.4,33926
785.5,33899
785.6,33872
785.7,33846
785.8,33818
785.9,33808
786.0,33791
786.1,33758
786.2,33722
786.3,33684
786.4,33647
786.5,33604
786.6,33559
786.7,33512
786.8,33463
786.9,33430
787.0,33395
787.1,33341
787.2,33284
787.3,33227
787.4,33168
787.5,33110
787.6,33047
787.7,32981
787.8,32913
787.9,32861
788.0,32812
788.1,32740
788.2,32666
788.3,32592
788.4,32519
788.5,32451
788.6,32379
788.7,32305
788.8,32244
788.9,32187
789.0,32116
789.1,32040
789.2,31963
789.3,31888
789.4,31812
789.5,31743
789.6,31689
789.7,31630
789.8,31559
789.9,31490
790.0,31427
790.1,31360
790.2,31296
790.3,31234
790.4,31173
790.5,31118
790.6,31078
790.7,31041
790.8,30990
790.9,30944
791.0,30902
791.1,30858
791.2,30812
791.3,30764
791.4,30714
791.5,30678
791.6,30639
791.7,30578
791.8,30512
791.9,30441
792.0,30371
792.1,30292
792.2,30211
792.3,30129
792.4,30063
792.5,29997
792.6,29920
792.7,29839
792.8,29758
792.9,29677
793.0,29597
793.1,29526
793.2,29450
793.3,29373
793.4,29309
793.5,29252
793.6,29181
793.7,29107
793.8,29034
793.9,28964
794.0,28893
794.1,28829
794.2,28765
794.3,28714
794.4,28669
794.5,28611
794.6,28560
794.7,28508
794.8,28460
794.9,28416
795.0,28376
795.1,28337
795.2,28300
795.3,28279
795.4,28265
795.5,28238
795.6,28215
795.7,28193
795.8,28177
795.9,28166
796.0,28161
796.1,28164
796.2,28176
796.3,28208
796.4,28250
796.5,28283
796.6,28321
796.7,28366
796.8,28413
796.9,28461
797.0,28510
797.1,28555
797.2,28599
797.3,28657
797.4,28714
797.5,28749
797.6,28777
797.7,28800
797.8,28820
797.9,28836
798.0,28848
798.1,28857
798.2,28863
798.3,28868
798.4,28886
798.5,28907
798.6,28910
798.7,28911
798.8,28908
798.9,28901
799.0,28889
799.1,28871
799.2,28845
799.3,28812
799.4,28785
799.5,28753
799.6,28695
799.7,28632
799.8,28562
799.9,28486
800.0,28405
