nm,INT
350.0,107389
350.1,107331
350.2,107269
350.3,107159
350.4,107020
350.5,106952
350.6,106887
350.7,106816
350.8,106694
350.9,106542
351.0,106457
351.1,106374
351.2,106284
351.3,106146
351.4,105980
351.5,105881
351.6,105788
351.7,105686
351.8,105536
351.9,105359
352.0,105249
352.1,105146
352.2,105035
352.3,104876
352.4,104690
352.5,104569
352.6,104455
352.7,104332
352.8,104163
352.9,103967
353.0,103835
353.1,103710
353.2,103575
353.3,103393
353.4,103184
353.5,103038
353.6,102899
353.7,102748
353.8,102549
353.9,102323
354.0,102160
354.1,102007
354.2,101843
354.3,101632
354.4,101395
354.5,101220
354.6,101057
354.7,100883
354.8,100664
354.9,100419
355.0,100240
355.1,100074
355.2,99897
355.3,99674
355.4,99427
355.5,99246
355.6,99079
355.7,98902
355.8,98681
355.9,98436
356.0,98256
356.1,98089
356.2,97913
356.3,97691
356.4,97445
356.5,97264
356.6,97096
356.7,96918
356.8,96695
356.9,96448
357.0,96263
357.1,96091
357.2,95906
357.3,95673
357.4,95412
357.5,95213
357.6,95024
357.7,94821
357.8,94569
357.9,94291
358.0,94071
358.1,93865
358.2,93646
358.3,93383
358.4,93096
358.5,92868
358.6,92655
358.7,92428
358.8,92158
358.9,91867
359.0,91631
359.1,91411
359.2,91175
359.3,90898
359.4,90599
359.5,90350
359.6,90119
359.7,89874
359.8,89590
359.9,89285
360.0,89030
360.1,88793
360.2,88539
360.3,88246
360.4,87934
360.5,87669
360.6,87423
360.7,87163
360.8,86868
360.9,86555
361.0,86288
361.1,86043
361.2,85785
361.3,85497
361.4,85195
361.5,84939
361.6,84704
361.7,84457
361.8,84179
361.9,83886
362.0,83638
362.1,83411
362.2,83173
362.3,82906
362.4,82626
362.5,82392
362.6,82180
362.7,81958
362.8,81709
362.9,81447
363.0,81232
363.1,81039
363.2,80837
363.3,80606
363.4,80361
363.5,80160
363.6,79977
363.7,79785
363.8,79566
363.9,79335
364.0,79149
364.1,78980
364.2,78804
364.3,78602
364.4,78388
364.5,78219
364.6,78067
364.7,77909
364.8,77728
364.9,77535
365.0,77384
365.1,77248
365.2,77107
365.3,76944
365.4,76771
365.5,76641
365.6,76526
365.7,76408
365.8,76267
365.9,76115
366.0,76006
366.1,75909
366.2,75811
366.3,75691
366.4,75561
366.5,75470
366.6,75390
366.7,75309
366.8,75208
366.9,75099
367.0,75027
367.1,74964
367.2,74900
367.3,74818
367.4,74728
367.5,74672
367.6,74623
367.7,74574
367.8,74506
367.9,74428
368.0,74384
368.1,74344
368.2,74303
368.3,74244
368.4,74178
368.5,74143
368.6,74113
368.7,74084
368.8,74041
368.9,73990
369.0,73969
369.1,73951
369.2,73935
369.3,73904
369.4,73866
369.5,73854
369.6,73844
369.7,73832
369.8,73807
369.9,73773
370.0,73760
370.1,73746
370.2,73731
370.3,73703
370.4,73669
370.5,73652
370.6,73637
370.7,73622
370.8,73595
370.9,73562
371.0,73547
371.1,73534
371.2,73521
371.3,73496
371.4,73466
371.5,73453
371.6,73441
371.7,73430
371.8,73409
371.9,73383
372.0,73371
372.1,73362
372.2,73352
372.3,73334
372.4,73311
372.5,73302
372.6,73294
372.7,73286
372.8,73271
372.9,73250
373.0,73243
373.1,73237
373.2,73233
373.3,73221
373.4,73206
373.5,73205
373.6,73206
373.7,73207
373.8,73202
373.9,73194
374.0,73199
374.1,73205
374.2,73212
374.3,73211
374.4,73207
374.5,73218
374.6,73229
374.7,73243
374.8,73252
374.9,73257
375.0,73277
375.1,73300
375.2,73323
375.3,73342
375.4,73360
375.5,73389
375.6,73415
375.7,73444
375.8,73466
375.9,73487
376.0,73515
376.1,73545
376.2,73575
376.3,73599
376.4,73623
376.5,73653
376.6,73687
376.7,73723
376.8,73750
376.9,73780
377.0,73817
377.1,73853
377.2,73888
377.3,73926
377.4,73961
377.5,73996
377.6,74035
377.7,74079
377.8,74122
377.9,74160
378.0,74202
378.1,74252
378.2,74304
378.3,74354
378.4,74403
378.5,74457
378.6,74514
378.7,74573
378.8,74627
378.9,74687
379.0,74743
379.1,74798
379.2,74855
379.3,74919
379.4,74983
379.5,75040
379.6,75098
379.7,75164
379.8,75232
379.9,75296
380.0,75367
380.1,75437
380.2,75505
380.3,75576
380.4,75656
380.5,75737
380.6,75812
380.7,75888
380.8,75978
380.9,76070
381.0,76164
381.1,76245
381.2,76330
381.3,76428
381.4,76527
381.5,76622
381.6,76721
381.7,76815
381.8,76902
381.9,76994
382.0,77094
382.1,77193
382.2,77280
382.3,77363
382.4,77462
382.5,77562
382.6,77655
382.7,77744
382.8,77839
382.9,77947
383.0,78058
383.1,78164
383.2,78279
383.3,78391
383.4,78500
383.5,78616
383.6,78745
383.7,78875
383.8,78991
383.9,79105
384.0,79238
384.1,79372
384.2,79499
384.3,79622
384.4,79751
384.5,79891
384.6,80026
384.7,80174
384.8,80314
384.9,80455
385.0,80603
385.1,80763
385.2,80928
385.3,81095
385.4,81249
385.5,81403
385.6,81578
385.7,81756
385.8,81923
385.9,82090
386.0,82263
386.1,82446
386.2,82619
386.3,82807
386.4,82984
386.5,83158
386.6,83335
386.7,83525
386.8,83717
386.9,83883
387.0,84061
387.1,84255
387.2,84450
387.3,84633
387.4,84830
387.5,85020
387.6,85211
387.7,85411
387.8,85599
387.9,85799
388.0,85998
388.1,86178
388.2,86344
388.3,86532
388.4,86715
388.5,86882
388.6,87040
388.7,87198
388.8,87364
388.9,87515
389.0,87673
389.1,87820
389.2,87961
389.3,88106
389.4,88258
389.5,88407
389.6,88532
389.7,88656
389.8,88794
389.9,88929
390.0,89059
390.1,89176
390.2,89283
390.3,89385
390.4,89496
390.5,89593
390.6,89694
390.7,89780
390.8,89860
390.9,89945
391.0,90032
391.1,90116
391.2,90180
391.3,90244
391.4,90321
391.5,90397
391.6,90468
391.7,90543
391.8,90609
391.9,90669
392.0,90742
392.1,90821
392.2,90900
392.3,90966
392.4,91030
392.5,91105
392.6,91187
392.7,91269
392.8,91331
392.9,91397
393.0,91481
393.1,91566
393.2,91649
393.3,91724
393.4,91809
393.5,91908
393.6,92004
393.7,92113
393.8,92226
393.9,92326
394.0,92427
394.1,92552
394.2,92680
394.3,92811
394.4,92922
394.5,93038
394.6,93177
394.7,93319
394.8,93455
394.9,93583
395.0,93723
395.1,93876
395.2,94024
395.3,94189
395.4,94358
395.5,94508
395.6,94657
395.7,94836
395.8,95019
395.9,95193
396.0,95359
396.1,95534
396.2,95723
396.3,95902
396.4,96099
396.5,96299
396.6,96487
396.7,96667
396.8,96856
396.9,97064
397.0,97274
397.1,97458
397.2,97638
397.3,97854
397.4,98071
397.5,98274
397.6,98466
397.7,98667
397.8,98885
397.9,99092
398.0,99315
398.1,99540
398.2,99740
398.3,99925
398.4,100149
398.5,100372
398.6,100581
398.7,100777
398.8,100973
398.9,101195
399.0,101417
399.1,101625
399.2,101818
399.3,102020
399.4,102244
399.5,102456
399.6,102686
399.7,102920
399.8,103125
399.9,103312
400.0,103548
400.1,103786
400.2,104010
400.3,104212
400.4,104413
400.5,104650
400.6,104888
400.7,105109
400.8,105306
400.9,105511
401.0,105752
401.1,105995
401.2,106222
401.3,106419
401.4,106636
401.5,106888
401.6,107141
401.7,107380
401.8,107638
401.9,107856
402.0,108076
402.1,108339
402.2,108588
402.3,108859
402.4,109073
402.5,109307
402.6,109580
402.7,109840
402.8,110124
402.9,110411
403.0,110642
403.1,110867
403.2,111144
403.3,111445
403.4,111752
403.5,112063
403.6,112315
403.7,112533
403.8,112857
403.9,113187
404.0,113521
404.1,113777
404.2,114021
404.3,114365
404.4,114714
404.5,115065
404.6,115313
404.7,115577
404.8,115930
404.9,116286
405.0,116644
405.1,116982
405.2,117257
405.3,117518
405.4,117883
405.5,118253
405.6,118601
405.7,118875
405.8,119164
405.9,119549
406.0,119939
406.1,120302
406.2,120691
406.3,121011
406.4,121291
406.5,121668
406.6,122080
406.7,122493
406.8,122804
406.9,123104
407.0,123493
407.1,123913
407.2,124336
407.3,124635
407.4,124953
407.5,125352
407.6,125777
407.7,126204
407.8,126631
407.9,126938
408.0,127224
408.1,127654
408.2,128085
408.3,128518
408.4,128807
408.5,129117
408.6,129552
408.7,129989
408.8,130430
408.9,130707
409.0,131049
409.1,131497
409.2,131948
409.3,132400
409.4,132823
409.5,133153
409.6,133500
409.7,133959
409.8,134420
409.9,134845
410.0,135295
410.1,135669
410.2,136007
410.3,136465
410.4,136891
410.5,137344
410.6,137708
410.7,138071
410.8,138524
410.9,138948
411.0,139402
411.1,139859
411.2,140245
411.3,140594
411.4,141021
411.5,141484
411.6,141948
411.7,142343
411.8,142728
411.9,143171
412.0,143650
412.1,144134
412.2,144619
412.3,145046
412.4,145439
412.5,145930
412.6,146423
412.7,146884
412.8,147328
412.9,147778
413.0,148269
413.1,148755
413.2,149203
413.3,149652
413.4,150115
413.5,150593
413.6,151069
413.7,151501
413.8,151962
413.9,152431
414.0,152894
414.1,153350
414.2,153769
414.3,154214
414.4,154694
414.5,155173
414.6,155615
414.7,156027
414.8,156466
414.9,156964
415.0,157444
415.1,157871
415.2,158272
415.3,158703
415.4,159128
415.5,159621
415.6,160096
415.7,160481
415.8,160888
415.9,161290
416.0,161687
416.1,162137
416.2,162615
416.3,163001
416.4,163376
416.5,163745
416.6,164187
416.7,164639
416.8,164993
416.9,165340
417.0,165679
417.1,166117
417.2,166535
417.3,166858
417.4,167176
417.5,167491
417.6,167783
417.7,168183
417.8,168634
417.9,168939
418.0,169240
418.1,169519
418.2,169934
418.3,170356
418.4,170647
418.5,170934
418.6,171193
418.7,171463
418.8,171843
418.9,172254
419.0,172494
419.1,172748
419.2,172995
419.3,173367
419.4,173726
419.5,173940
419.6,174162
419.7,174378
419.8,174740
419.9,175047
420.0,175238
420.1,175438
420.2,175632
420.3,175824
420.4,176119
420.5,176429
420.6,176613
420.7,176795
420.8,176974
420.9,177272
421.0,177549
421.1,177719
421.2,177887
421.3,178052
421.4,178347
421.5,178588
421.6,178743
421.7,178896
421.8,179044
421.9,179177
422.0,179420
422.1,179662
422.2,179792
422.3,179918
422.4,180030
422.5,180145
422.6,180339
422.7,180560
422.8,180661
422.9,180753
423.0,180850
423.1,181036
423.2,181221
423.3,181313
423.4,181399
423.5,181491
423.6,181586
423.7,181749
423.8,181939
423.9,182032
424.0,182134
424.1,182237
424.2,182413
424.3,182586
424.4,182684
424.5,182791
424.6,182899
424.7,183008
424.8,183161
424.9,183339
425.0,183449
425.1,183560
425.2,183666
425.3,183818
425.4,183993
425.5,184104
425.6,184208
425.7,184320
425.8,184480
425.9,184636
426.0,184741
426.1,184854
426.2,184966
426.3,185124
426.4,185262
426.5,185361
426.6,185465
426.7,185567
426.8,185700
426.9,185817
427.0,185910
427.1,186000
427.2,186082
427.3,186167
427.4,186278
427.5,186386
427.6,186464
427.7,186551
427.8,186638
427.9,186743
428.0,186845
428.1,186931
428.2,187015
428.3,187090
428.4,187187
428.5,187277
428.6,187351
428.7,187419
428.8,187478
428.9,187536
429.0,187604
429.1,187668
429.2,187714
429.3,187763
429.4,187809
429.5,187864
429.6,187914
429.7,187955
429.8,187996
429.9,188031
430.0,188069
430.1,188113
430.2,188160
430.3,188197
430.4,188238
430.5,188281
430.6,188327
430.7,188376
430.8,188425
430.9,188475
431.0,188528
431.1,188583
431.2,188638
431.3,188693
431.4,188747
431.5,188799
431.6,188855
431.7,188914
431.8,188972
431.9,189026
432.0,189087
432.1,189149
432.2,189211
432.3,189271
432.4,189334
432.5,189396
432.6,189452
432.7,189511
432.8,189570
432.9,189627
433.0,189684
433.1,189735
433.2,189790
433.3,189849
433.4,189911
433.5,189972
433.6,190044
433.7,190120
433.8,190200
433.9,190284
434.0,190376
434.1,190473
434.2,190568
434.3,190672
434.4,190780
434.5,190883
434.6,190980
434.7,191086
434.8,191196
434.9,191302
435.0,191402
435.1,191508
435.2,191613
435.3,191719
435.4,191826
435.5,191936
435.6,192049
435.7,192165
435.8,192273
435.9,192392
436.0,192518
436.1,192639
436.2,192756
436.3,192885
436.4,193025
436.5,193160
436.6,193291
436.7,193435
436.8,193585
436.9,193737
437.0,193892
437.1,194051
437.2,194209
437.3,194357
437.4,194518
437.5,194687
437.6,194856
437.7,195015
437.8,195163
437.9,195319
438.0,195477
438.1,195634
438.2,195792
438.3,195952
438.4,196112
438.5,196261
438.6,196417
438.7,196582
438.8,196738
438.9,196882
439.0,197036
439.1,197194
439.2,197346
439.3,197486
439.4,197636
439.5,197790
439.6,197941
439.7,198095
439.8,198259
439.9,198427
440.0,198600
440.1,198767
440.2,198935
440.3,199110
440.4,199290
440.5,199457
440.6,199634
440.7,199798
440.8,199953
440.9,200115
441.0,200290
441.1,200465
441.2,200602
441.3,200745
441.4,200918
441.5,201095
441.6,201263
441.7,201442
441.8,201595
441.9,201733
442.0,201906
442.1,202097
442.2,202292
442.3,202439
442.4,202582
442.5,202769
442.6,202975
442.7,203185
442.8,203318
442.9,203464
443.0,203681
443.1,203901
443.2,204103
443.3,204225
443.4,204377
443.5,204588
443.6,204789
443.7,205006
443.8,205224
443.9,205346
444.0,205452
444.1,205671
444.2,205893
444.3,206121
444.4,206226
444.5,206353
444.6,206590
444.7,206832
444.8,207061
444.9,207172
445.0,207330
445.1,207583
445.2,207827
445.3,208098
445.4,208375
445.5,208520
445.6,208644
445.7,208928
445.8,209218
445.9,209492
446.0,209631
446.1,209781
446.2,210073
446.3,210348
446.4,210646
446.5,210946
446.6,211107
446.7,211203
446.8,211473
446.9,211764
447.0,212054
447.1,212160
447.2,212232
447.3,212508
447.4,212781
447.5,213034
447.6,213103
447.7,213177
447.8,213440
447.9,213687
448.0,213952
448.1,214219
448.2,214315
448.3,214308
448.4,214574
448.5,214840
448.6,215088
448.7,215153
448.8,215147
448.9,215395
449.0,215634
449.1,215851
449.2,215837
449.3,215822
449.4,216030
449.5,216218
449.6,216411
449.7,216598
449.8,216583
449.9,216444
450.0,216606
450.1,216761
450.2,216899
450.3,216826
450.4,216665
450.5,216778
450.6,216892
450.7,216993
450.8,216879
450.9,216676
451.0,216759
451.1,216841
451.2,216917
451.3,216741
451.4,216519
451.5,216573
451.6,216616
451.7,216656
451.8,216441
451.9,216178
452.0,216197
452.1,216207
452.2,216209
452.3,215931
452.4,215649
452.5,215639
452.6,215624
452.7,215606
452.8,215300
452.9,214989
453.0,214957
453.1,214919
453.2,214878
453.3,214525
453.4,214213
453.5,214163
453.6,214113
453.7,214057
453.8,213684
453.9,213356
454.0,213300
454.1,213245
454.2,213195
454.3,212791
454.4,212487
454.5,212434
454.6,212377
454.7,212320
454.8,211909
454.9,211597
455.0,211535
455.1,211465
455.2,211391
455.3,210958
455.4,210658
455.5,210584
455.6,210512
455.7,210435
455.8,210014
455.9,209722
456.0,209643
456.1,209562
456.2,209483
456.3,209395
456.4,209060
456.5,208683
456.6,208587
456.7,208493
456.8,208386
456.9,208049
457.0,207671
457.1,207556
457.2,207437
457.3,207323
457.4,206974
457.5,206624
457.6,206507
457.7,206375
457.8,206248
457.9,205909
458.0,205564
458.1,205425
458.2,205289
458.3,205136
458.4,204795
458.5,204477
458.6,204314
458.7,204155
458.8,203977
458.9,203636
459.0,203313
459.1,203116
459.2,202909
459.3,202707
459.4,202338
459.5,202011
459.6,201791
459.7,201549
459.8,201317
459.9,200948
460.0,200604
460.1,200348
460.2,200102
460.3,199828
460.4,199478
460.5,199152
460.6,198875
460.7,198605
460.8,198302
460.9,197958
461.0,197623
461.1,197303
461.2,196976
461.3,196661
461.4,196316
461.5,195966
461.6,195613
461.7,195251
461.8,194906
461.9,194531
462.0,194161
462.1,193800
462.2,193435
462.3,193036
462.4,192656
462.5,192295
462.6,191929
462.7,191537
462.8,191107
462.9,190699
463.0,190331
463.1,189944
463.2,189496
463.3,189068
463.4,188600
463.5,188239
463.6,187859
463.7,187383
463.8,186931
463.9,186437
464.0,185936
464.1,185530
464.2,185181
464.3,184675
464.4,184205
464.5,183707
464.6,183301
464.7,182957
464.8,182445
464.9,181970
465.0,181466
465.1,181045
465.2,180672
465.3,180188
465.4,179659
465.5,179160
465.6,178746
465.7,178363
465.8,177866
465.9,177324
466.0,176782
466.1,176378
466.2,175995
466.3,175455
466.4,174951
466.5,174413
466.6,174004
466.7,173618
466.8,173072
466.9,172562
467.0,172016
467.1,171582
467.2,171164
467.3,170643
467.4,170082
467.5,169560
467.6,169137
467.7,168711
467.8,168183
467.9,167611
468.0,167037
468.1,166625
468.2,166187
468.3,165614
468.4,165073
468.5,164488
468.6,164061
468.7,163608
468.8,163016
468.9,162458
469.0,161856
469.1,161245
469.2,160753
469.3,160329
469.4,159706
469.5,159125
469.6,158507
469.7,157994
469.8,157552
469.9,156911
470.0,156267
470.1,155660
470.2,155142
470.3,154654
470.4,154052
470.5,153399
470.6,152785
470.7,152255
470.8,151752
470.9,151139
471.0,150471
471.1,149800
471.2,149263
471.3,148746
471.4,148069
471.5,147437
471.6,146760
471.7,146203
471.8,145666
471.9,144972
472.0,144278
472.1,143631
472.2,143057
472.3,142483
472.4,141832
472.5,141131
472.6,140479
472.7,139893
472.8,139307
472.9,138654
473.0,137954
473.1,137256
473.2,136689
473.3,136104
473.4,135419
473.5,134778
473.6,134091
473.7,133527
473.8,132945
473.9,132257
474.0,131570
474.1,130935
474.2,130264
474.3,129665
474.4,129118
474.5,128432
474.6,127800
474.7,127129
474.8,126527
474.9,125975
475.0,125282
475.1,124588
475.2,123892
475.3,123269
475.4,122644
475.5,121943
475.6,121240
475.7,120535
475.8,119961
475.9,119337
476.0,118631
476.1,117926
476.2,117223
476.3,116521
476.4,115897
476.5,115251
476.6,114550
476.7,113849
476.8,113151
476.9,112453
477.0,111756
477.1,111108
477.2,110480
477.3,109786
477.4,109141
477.5,108455
477.6,107812
477.7,107171
477.8,106477
477.9,105784
478.0,105096
478.1,104412
478.2,103777
478.3,103145
478.4,102473
478.5,101808
478.6,101149
478.7,100495
478.8,99883
478.9,99294
479.0,98698
479.1,98064
479.2,97437
479.3,96852
479.4,96263
479.5,95654
479.6,95052
479.7,94457
479.8,93870
479.9,93318
480.0,92764
480.1,92195
480.2,91634
480.3,91077
480.4,90526
480.5,90032
480.6,89536
480.7,89001
480.8,88473
480.9,87953
481.0,87438
481.1,86947
481.2,86462
481.3,85965
481.4,85475
481.5,84994
481.6,84517
481.7,84063
481.8,83615
481.9,83154
482.0,82699
482.1,82286
482.2,81853
482.3,81427
482.4,81012
482.5,80582
482.6,80156
482.7,79734
482.8,79333
482.9,78927
483.0,78509
483.1,78091
483.2,77674
483.3,77258
483.4,76860
483.5,76457
483.6,76048
483.7,75663
483.8,75246
483.9,74832
484.0,74436
484.1,74042
484.2,73631
484.3,73221
484.4,72813
484.5,72406
484.6,72017
484.7,71629
484.8,71225
484.9,70821
485.0,70417
485.1,70013
485.2,69643
485.3,69278
485.4,68876
485.5,68474
485.6,68073
485.7,67672
485.8,67283
485.9,66900
486.0,66500
486.1,66102
486.2,65705
486.3,65324
486.4,64940
486.5,64545
486.6,64152
486.7,63761
486.8,63397
486.9,63032
487.0,62655
487.1,62270
487.2,61888
487.3,61509
487.4,61133
487.5,60770
487.6,60411
487.7,60047
487.8,59689
487.9,59338
488.0,58993
488.1,58661
488.2,58344
488.3,58037
488.4,57713
488.5,57396
488.6,57084
488.7,56782
488.8,56486
488.9,56189
489.0,55898
489.1,55611
489.2,55328
489.3,55052
489.4,54780
489.5,54508
489.6,54240
489.7,53975
489.8,53730
489.9,53486
490.0,53233
490.1,52983
490.2,52740
490.3,52500
490.4,52265
490.5,52034
490.6,51806
490.7,51583
490.8,51363
490.9,51145
491.0,50930
491.1,50715
491.2,50502
491.3,50291
491.4,50099
491.5,49897
491.6,49693
491.7,49491
491.8,49290
491.9,49093
492.0,48900
492.1,48708
492.2,48519
492.3,48332
492.4,48146
492.5,47961
492.6,47777
492.7,47594
492.8,47413
492.9,47239
493.0,47074
493.1,46896
493.2,46721
493.3,46550
493.4,46381
493.5,46211
493.6,46041
493.7,45873
493.8,45705
493.9,45539
494.0,45373
494.1,45205
494.2,45037
494.3,44869
494.4,44702
494.5,44546
494.6,44393
494.7,44228
494.8,44064
494.9,43899
495.0,43734
495.1,43571
495.2,43409
495.3,43241
495.4,43072
495.5,42900
495.6,42727
495.7,42555
495.8,42385
495.9,42210
496.0,42035
496.1,41874
496.2,41709
496.3,41539
496.4,41364
496.5,41189
496.6,41014
496.7,40839
496.8,40666
496.9,40491
497.0,40312
497.1,40132
497.2,39951
497.3,39770
497.4,39594
497.5,39418
497.6,39244
497.7,39081
497.8,38907
497.9,38735
498.0,38563
498.1,38388
498.2,38214
498.3,38039
498.4,37864
498.5,37688
498.6,37514
498.7,37340
498.8,37164
498.9,36988
499.0,36813
499.1,36639
499.2,36474
499.3,36314
499.4,36142
499.5,35971
499.6,35802
499.7,35635
499.8,35469
499.9,35303
500.0,35139
500.1,34977
500.2,34817
500.3,34661
500.4,34507
500.5,34356
500.6,34207
500.7,34062
500.8,33918
500.9,33777
501.0,33636
501.1,33495
501.2,33355
501.3,33216
501.4,33079
501.5,32943
501.6,32803
501.7,32659
501.8,32525
501.9,32392
502.0,32262
502.1,32134
502.2,32008
502.3,31884
502.4,31759
502.5,31634
502.6,31509
502.7,31384
502.8,31260
502.9,31136
503.0,31012
503.1,30887
503.2,30763
503.3,30640
503.4,30519
503.5,30399
503.6,30279
503.7,30162
503.8,30046
503.9,29932
504.0,29818
504.1,29704
504.2,29592
504.3,29480
504.4,29371
504.5,29263
504.6,29157
504.7,29050
504.8,28940
504.9,28838
505.0,28739
505.1,28641
505.2,28546
505.3,28452
505.4,28359
505.5,28267
505.6,28176
505.7,28086
505.8,27998
505.9,27911
506.0,27826
506.1,27742
506.2,27661
506.3,27580
506.4,27502
506.5,27425
506.6,27349
506.7,27275
506.8,27201
506.9,27128
507.0,27056
507.1,26984
507.2,26912
507.3,26840
507.4,26768
507.5,26697
507.6,26626
507.7,26556
507.8,26485
507.9,26410
508.0,26341
508.1,26273
508.2,26204
508.3,26137
508.4,26070
508.5,26002
508.6,25934
508.7,25866
508.8,25799
508.9,25731
509.0,25662
509.1,25593
509.2,25523
509.3,25454
509.4,25385
509.5,25317
509.6,25246
509.7,25176
509.8,25105
509.9,25035
510.0,24965
510.1,24897
510.2,24829
510.3,24760
510.4,24692
510.5,24623
510.6,24556
510.7,24490
510.8,24425
510.9,24359
511.0,24289
511.1,24224
511.2,24160
511.3,24096
511.4,24032
511.5,23967
511.6,23901
511.7,23837
511.8,23772
511.9,23708
512.0,23644
512.1,23579
512.2,23515
512.3,23451
512.4,23388
512.5,23327
512.6,23266
512.7,23205
512.8,23144
512.9,23084
513.0,23024
513.1,22965
513.2,22905
513.3,22846
513.4,22787
513.5,22727
513.6,22667
513.7,22607
513.8,22548
513.9,22489
514.0,22430
514.1,22366
514.2,22306
514.3,22246
514.4,22186
514.5,22126
514.6,22067
514.7,22008
514.8,21949
514.9,21890
515.0,21832
515.1,21773
515.2,21713
515.3,21654
515.4,21595
515.5,21536
515.6,21477
515.7,21419
515.8,21359
515.9,21300
516.0,21241
516.1,21183
516.2,21126
516.3,21070
516.4,21015
516.5,20960
516.6,20905
516.7,20851
516.8,20798
516.9,20746
517.0,20693
517.1,20641
517.2,20586
517.3,20532
517.4,20480
517.5,20428
517.6,20375
517.7,20322
517.8,20270
517.9,20217
518.0,20166
518.1,20114
518.2,20063
518.3,20011
518.4,19960
518.5,19910
518.6,19863
518.7,19816
518.8,19770
518.9,19725
519.0,19681
519.1,19637
519.2,19595
519.3,19554
519.4,19512
519.5,19470
519.6,19429
519.7,19387
519.8,19346
519.9,19305
520.0,19263
520.1,19221
520.2,19180
520.3,19136
520.4,19095
520.5,19054
520.6,19012
520.7,18971
520.8,18928
520.9,18886
521.0,18844
521.1,18801
521.2,18758
521.3,18713
521.4,18668
521.5,18623
521.6,18576
521.7,18529
521.8,18480
521.9,18430
522.0,18380
522.1,18329
522.2,18277
522.3,18225
522.4,18172
522.5,18119
522.6,18066
522.7,18014
522.8,17962
522.9,17910
523.0,17858
523.1,17807
523.2,17757
523.3,17706
523.4,17652
523.5,17599
523.6,17548
523.7,17495
523.8,17442
523.9,17388
524.0,17334
524.1,17279
524.2,17223
524.3,17168
524.4,17112
524.5,17056
524.6,16999
524.7,16942
524.8,16886
524.9,16831
525.0,16776
525.1,16722
525.2,16671
525.3,16620
525.4,16566
525.5,16514
525.6,16462
525.7,16415
525.8,16366
525.9,16315
526.0,16266
526.1,16218
526.2,16174
526.3,16128
526.4,16081
526.5,16036
526.6,15992
526.7,15953
526.8,15912
526.9,15870
527.0,15828
527.1,15789
527.2,15753
527.3,15715
527.4,15676
527.5,15637
527.6,15600
527.7,15565
527.8,15527
527.9,15489
528.0,15450
528.1,15412
528.2,15376
528.3,15339
528.4,15301
528.5,15263
528.6,15226
528.7,15189
528.8,15153
528.9,15119
529.0,15085
529.1,15051
529.2,15017
529.3,14984
529.4,14951
529.5,14919
529.6,14887
529.7,14854
529.8,14822
529.9,14788
530.0,14753
530.1,14718
530.2,14683
530.3,14646
530.4,14609
530.5,14572
530.6,14536
530.7,14496
530.8,14455
530.9,14416
531.0,14377
531.1,14340
531.2,14302
531.3,14261
531.4,14222
531.5,14186
531.6,14148
531.7,14111
531.8,14072
531.9,14034
532.0,14000
532.1,13963
532.2,13927
532.3,13889
532.4,13852
532.5,13814
532.6,13776
532.7,13739
532.8,13702
532.9,13665
533.0,13628
533.1,13591
533.2,13555
533.3,13519
533.4,13483
533.5,13447
533.6,13412
533.7,13377
533.8,13341
533.9,13305
534.0,13269
534.1,13233
534.2,13198
534.3,13162
534.4,13129
534.5,13092
534.6,13053
534.7,13015
534.8,12978
534.9,12942
535.0,12904
535.1,12863
535.2,12822
535.3,12782
535.4,12744
535.5,12704
535.6,12662
535.7,12620
535.8,12580
535.9,12543
536.0,12504
536.1,12462
536.2,12421
536.3,12381
536.4,12343
536.5,12302
536.6,12261
536.7,12218
536.8,12177
536.9,12139
537.0,12098
537.1,12057
537.2,12017
537.3,11977
537.4,11938
537.5,11899
537.6,11859
537.7,11821
537.8,11780
537.9,11737
538.0,11695
538.1,11652
538.2,11612
538.3,11569
538.4,11526
538.5,11483
538.6,11440
538.7,11401
538.8,11360
538.9,11318
539.0,11276
539.1,11235
539.2,11198
539.3,11159
539.4,11119
539.5,11079
539.6,11041
539.7,11006
539.8,10969
539.9,10932
540.0,10895
540.1,10862
540.2,10830
540.3,10795
540.4,10759
540.5,10723
540.6,10688
540.7,10654
540.8,10618
540.9,10581
541.0,10543
541.1,10506
541.2,10469
541.3,10431
541.4,10394
541.5,10357
541.6,10321
541.7,10286
541.8,10249
541.9,10212
542.0,10176
542.1,10140
542.2,10105
542.3,10069
542.4,10034
542.5,9998
542.6,9965
542.7,9931
542.8,9897
542.9,9863
543.0,9830
543.1,9801
543.2,9770
543.3,9739
543.4,9708
543.5,9679
543.6,9651
543.7,9623
543.8,9594
543.9,9566
544.0,9541
544.1,9514
544.2,9487
544.3,9460
544.4,9433
544.5,9409
544.6,9383
544.7,9358
544.8,9333
544.9,9308
545.0,9284
545.1,9259
545.2,9234
545.3,9210
545.4,9187
545.5,9164
545.6,9142
545.7,9121
545.8,9100
545.9,9080
546.0,9061
546.1,9042
546.2,9024
546.3,9008
546.4,8992
546.5,8977
546.6,8962
546.7,8947
546.8,8933
546.9,8920
547.0,8906
547.1,8892
547.2,8879
547.3,8866
547.4,8853
547.5,8840
547.6,8826
547.7,8813
547.8,8800
547.9,8788
548.0,8775
548.1,8761
548.2,8747
548.3,8733
548.4,8720
548.5,8705
548.6,8689
548.7,8673
548.8,8656
548.9,8641
549.0,8623
549.1,8605
549.2,8587
549.3,8568
549.4,8550
549.5,8530
549.6,8509
549.7,8488
549.8,8466
549.9,8444
550.0,8420
550.1,8395
550.2,8370
550.3,8344
550.4,8317
550.5,8291
550.6,8263
550.7,8235
550.8,8206
550.9,8176
551.0,8145
551.1,8113
551.2,8081
551.3,8046
551.4,8010
551.5,7972
551.6,7932
551.7,7890
551.8,7849
551.9,7808
552.0,7766
552.1,7723
552.2,7680
552.3,7637
552.4,7594
552.5,7551
552.6,7508
552.7,7466
552.8,7424
552.9,7382
553.0,7342
553.1,7302
553.2,7263
553.3,7225
553.4,7187
553.5,7150
553.6,7113
553.7,7077
553.8,7042
553.9,7007
554.0,6973
554.1,6939
554.2,6906
554.3,6875
554.4,6844
554.5,6815
554.6,6788
554.7,6760
554.8,6734
554.9,6711
555.0,6690
555.1,6670
555.2,6651
555.3,6633
555.4,6616
555.5,6600
555.6,6584
555.7,6570
555.8,6555
555.9,6542
556.0,6530
556.1,6518
556.2,6507
556.3,6497
556.4,6488
556.5,6480
556.6,6473
556.7,6468
556.8,6463
556.9,6459
557.0,6455
557.1,6452
557.2,6451
557.3,6450
557.4,6449
557.5,6447
557.6,6445
557.7,6442
557.8,6439
557.9,6435
558.0,6430
558.1,6423
558.2,6415
558.3,6406
558.4,6395
558.5,6385
558.6,6374
558.7,6362
558.8,6350
558.9,6338
559.0,6325
559.1,6313
559.2,6302
559.3,6291
559.4,6279
559.5,6268
559.6,6258
559.7,6249
559.8,6239
559.9,6230
560.0,6220
560.1,6210
560.2,6200
560.3,6191
560.4,6181
560.5,6172
560.6,6160
560.7,6148
560.8,6135
560.9,6122
561.0,6107
561.1,6092
561.2,6077
561.3,6061
561.4,6045
561.5,6029
561.6,6014
561.7,5999
561.8,5985
561.9,5970
562.0,5956
562.1,5944
562.2,5931
562.3,5920
562.4,5909
562.5,5897
562.6,5886
562.7,5876
562.8,5867
562.9,5858
563.0,5848
563.1,5838
563.2,5827
563.3,5816
563.4,5805
563.5,5792
563.6,5777
563.7,5762
563.8,5744
563.9,5727
564.0,5708
564.1,5687
564.2,5667
564.3,5647
564.4,5627
564.5,5606
564.6,5586
564.7,5566
564.8,5546
564.9,5525
565.0,5503
565.1,5483
565.2,5461
565.3,5440
565.4,5418
565.5,5396
565.6,5373
565.7,5350
565.8,5329
565.9,5307
566.0,5286
566.1,5264
566.2,5241
566.3,5219
566.4,5196
566.5,5173
566.6,5149
566.7,5124
566.8,5098
566.9,5071
567.0,5044
567.1,5018
567.2,4988
567.3,4960
567.4,4932
567.5,4904
567.6,4877
567.7,4850
567.8,4824
567.9,4799
568.0,4774
568.1,4749
568.2,4726
568.3,4705
568.4,4685
568.5,4666
568.6,4647
568.7,4630
568.8,4614
568.9,4598
569.0,4583
569.1,4568
569.2,4553
569.3,4536
569.4,4520
569.5,4503
569.6,4487
569.7,4470
569.8,4452
569.9,4435
570.0,4418
570.1,4402
570.2,4387
570.3,4371
570.4,4356
570.5,4343
570.6,4330
570.7,4318
570.8,4307
570.9,4296
571.0,4285
571.1,4273
571.2,4261
571.3,4250
571.4,4239
571.5,4228
571.6,4215
571.7,4203
571.8,4190
571.9,4177
572.0,4163
572.1,4148
572.2,4132
572.3,4114
572.4,4096
572.5,4078
572.6,4059
572.7,4038
572.8,4017
572.9,3995
573.0,3973
573.1,3951
573.2,3928
573.3,3905
573.4,3880
573.5,3854
573.6,3829
573.7,3804
573.8,3779
573.9,3753
574.0,3728
574.1,3702
574.2,3675
574.3,3650
574.4,3625
574.5,3600
574.6,3576
574.7,3551
574.8,3526
574.9,3503
575.0,3479
575.1,3457
575.2,3433
575.3,3411
575.4,3390
575.5,3370
575.6,3351
575.7,3333
575.8,3317
575.9,3303
576.0,3289
576.1,3276
576.2,3265
576.3,3256
576.4,3247
576.5,3239
576.6,3232
576.7,3226
576.8,3220
576.9,3217
577.0,3214
577.1,3212
577.2,3212
577.3,3212
577.4,3212
577.5,3214
577.6,3217
577.7,3221
577.8,3225
577.9,3231
578.0,3238
578.1,3244
578.2,3251
578.3,3259
578.4,3268
578.5,3276
578.6,3285
578.7,3292
578.8,3298
578.9,3304
579.0,3309
579.1,3313
579.2,3315
579.3,3316
579.4,3315
579.5,3312
579.6,3309
579.7,3305
579.8,3301
579.9,3296
580.0,3291
580.1,3284
580.2,3276
580.3,3269
580.4,3261
580.5,3252
580.6,3243
580.7,3233
580.8,3222
580.9,3210
581.0,3199
581.1,3187
581.2,3175
581.3,3163
581.4,3150
581.5,3136
581.6,3122
581.7,3109
581.8,3096
581.9,3082
582.0,3069
582.1,3055
582.2,3042
582.3,3029
582.4,3016
582.5,3005
582.6,2994
582.7,2983
582.8,2972
582.9,2961
583.0,2952
583.1,2943
583.2,2934
583.3,2925
583.4,2916
583.5,2908
583.6,2900
583.7,2893
583.8,2887
583.9,2882
584.0,2877
584.1,2873
584.2,2870
584.3,2868
584.4,2868
584.5,2868
584.6,2868
584.7,2869
584.8,2869
584.9,2869
585.0,2869
585.1,2869
585.2,2869
585.3,2868
585.4,2865
585.5,2862
585.6,2858
585.7,2855
585.8,2851
585.9,2846
586.0,2842
586.1,2836
586.2,2831
586.3,2825
586.4,2820
586.5,2815
586.6,2809
586.7,2804
586.8,2798
586.9,2792
587.0,2785
587.1,2778
587.2,2771
587.3,2762
587.4,2754
587.5,2744
587.6,2733
587.7,2722
587.8,2711
587.9,2699
588.0,2687
588.1,2674
588.2,2661
588.3,2649
588.4,2639
588.5,2629
588.6,2619
588.7,2608
588.8,2599
588.9,2590
589.0,2581
589.1,2572
589.2,2564
589.3,2555
589.4,2546
589.5,2537
589.6,2527
589.7,2517
589.8,2508
589.9,2500
590.0,2491
590.1,2484
590.2,2477
590.3,2471
590.4,2465
590.5,2461
590.6,2458
590.7,2456
590.8,2454
590.9,2453
591.0,2452
591.1,2451
591.2,2451
591.3,2451
591.4,2452
591.5,2452
591.6,2451
591.7,2450
591.8,2448
591.9,2447
592.0,2446
592.1,2445
592.2,2444
592.3,2443
592.4,2442
592.5,2442
592.6,2442
592.7,2443
592.8,2445
592.9,2446
593.0,2447
593.1,2448
593.2,2449
593.3,2449
593.4,2448
593.5,2447
593.6,2445
593.7,2442
593.8,2438
593.9,2435
594.0,2430
594.1,2424
594.2,2418
594.3,2412
594.4,2404
594.5,2397
594.6,2389
594.7,2381
594.8,2373
594.9,2364
595.0,2354
595.1,2344
595.2,2335
595.3,2324
595.4,2312
595.5,2299
595.6,2286
595.7,2272
595.8,2257
595.9,2241
596.0,2226
596.1,2209
596.2,2191
596.3,2173
596.4,2156
596.5,2140
596.6,2123
596.7,2106
596.8,2090
596.9,2075
597.0,2060
597.1,2044
597.2,2029
597.3,2015
597.4,2001
597.5,1987
597.6,1972
597.7,1957
597.8,1943
597.9,1929
598.0,1913
598.1,1899
598.2,1885
598.3,1870
598.4,1855
598.5,1840
598.6,1826
598.7,1812
598.8,1799
598.9,1785
599.0,1772
599.1,1760
599.2,1748
599.3,1737
599.4,1725
599.5,1714
599.6,1704
599.7,1694
599.8,1684
599.9,1673
600.0,1664
