nm,INT
500.0,73
500.1,73
500.2,72
500.3,72
500.4,71
500.5,70
500.6,69
500.7,68
500.8,67
500.9,66
501.0,65
501.1,64
501.2,62
501.3,61
501.4,59
501.5,58
501.6,56
501.7,55
501.8,53
501.9,52
502.0,51
502.1,50
502.2,48
502.3,47
502.4,46
502.5,45
502.6,44
502.7,43
502.8,42
502.9,40
503.0,39
503.1,38
503.2,37
503.3,36
503.4,35
503.5,33
503.6,32
503.7,30
503.8,29
503.9,28
504.0,26
504.1,24
504.2,23
504.3,21
504.4,20
504.5,18
504.6,17
504.7,16
504.8,14
504.9,13
505.0,12
505.1,10
505.2,9
505.3,8
505.4,7
505.5,6
505.6,6
505.7,5
505.8,4
505.9,4
506.0,3
506.1,3
506.2,3
506.3,3
506.4,3
506.5,3
506.6,3
506.7,2
506.8,2
506.9,2
507.0,2
507.1,2
507.2,2
507.3,2
507.4,2
507.5,2
507.6,2
507.7,2
507.8,2
507.9,2
508.0,2
508.1,2
508.2,2
508.3,2
508.4,2
508.5,2
508.6,2
508.7,2
508.8,2
508.9,2
509.0,2
509.1,2
509.2,1
509.3,1
509.4,1
509.5,1
509.6,1
509.7,1
509.8,0
509.9,0
510.0,0
510.1,0
510.2,0
510.3,0
510.4,0
510.5,0
510.6,0
510.7,0
510.8,0
510.9,0
511.0,0
511.1,0
511.2,0
511.3,0
511.4,0
511.5,0
511.6,0
511.7,0
511.8,0
511.9,0
512.0,0
512.1,0
512.2,0
512.3,0
512.4,0
512.5,0
512.6,0
512.7,0
512.8,0
512.9,0
513.0,0
513.1,0
513.2,0
513.3,0
513.4,0
513.5,0
513.6,0
513.7,0
513.8,0
513.9,0
514.0,0
514.1,0
514.2,0
514.3,0
514.4,0
514.5,0
514.6,0
514.7,0
514.8,0
514.9,1
515.0,1
515.1,1
515.2,1
515.3,1
515.4,1
515.5,1
515.6,1
515.7,1
515.8,1
515.9,1
516.0,1
516.1,1
516.2,1
516.3,1
516.4,1
516.5,1
516.6,1
516.7,2
516.8,2
516.9,2
517.0,2
517.1,2
517.2,2
517.3,3
517.4,3
517.5,3
517.6,3
517.7,3
517.8,3
517.9,3
518.0,3
518.1,3
518.2,3
518.3,3
518.4,4
518.5,5
518.6,6
518.7,7
518.8,8
518.9,9
519.0,10
519.1,11
519.2,12
519.3,13
519.4,14
519.5,15
519.6,15
519.7,16
519.8,16
519.9,16
520.0,16
520.1,16
520.2,16
520.3,16
520.4,17
520.5,17
520.6,18
520.7,19
520.8,20
520.9,21
521.0,23
521.1,24
521.2,26
521.3,27
521.4,28
521.5,29
521.6,30
521.7,31
521.8,31
521.9,31
522.0,32
522.1,32
522.2,32
522.3,32
522.4,32
522.5,32
522.6,32
522.7,33
522.8,33
522.9,34
523.0,35
523.1,36
523.2,37
523.3,38
523.4,39
523.5,40
523.6,41
523.7,42
523.8,43
523.9,44
524.0,45
524.1,45
524.2,46
524.3,47
524.4,49
524.5,50
524.6,52
524.7,55
524.8,57
524.9,60
525.0,63
525.1,67
525.2,70
525.3,74
525.4,77
525.5,81
525.6,85
525.7,89
525.8,93
525.9,97
526.0,101
526.1,105
526.2,110
526.3,115
526.4,120
526.5,126
526.6,132
526.7,138
526.8,144
526.9,151
527.0,157
527.1,165
527.2,172
527.3,180
527.4,187
527.5,195
527.6,203
527.7,211
527.8,219
527.9,228
528.0,236
528.1,245
528.2,253
528.3,261
528.4,270
528.5,280
528.6,289
528.7,299
528.8,309
528.9,319
529.0,330
529.1,341
529.2,353
529.3,365
529.4,376
529.5,388
529.6,400
529.7,411
529.8,423
529.9,434
530.0,445
530.1,457
530.2,468
530.3,480
530.4,491
530.5,502
530.6,514
530.7,525
530.8,537
530.9,548
531.0,560
531.1,572
531.2,583
531.3,594
531.4,605
531.5,615
531.6,626
531.7,637
531.8,648
531.9,659
532.0,670
532.1,681
532.2,692
532.3,703
532.4,714
532.5,725
532.6,736
532.7,746
532.8,756
532.9,765
533.0,775
533.1,785
533.2,794
533.3,803
533.4,812
533.5,820
533.6,828
533.7,836
533.8,845
533.9,853
534.0,860
534.1,868
534.2,875
534.3,882
534.4,889
534.5,896
534.6,903
534.7,910
534.8,917
534.9,924
535.0,931
535.1,938
535.2,945
535.3,951
535.4,957
535.5,963
535.6,968
535.7,973
535.8,978
535.9,983
536.0,987
536.1,991
536.2,996
536.3,1001
536.4,1006
536.5,1011
536.6,1017
536.7,1023
536.8,1029
536.9,1035
537.0,1042
537.1,1049
537.2,1055
537.3,1062
537.4,1069
537.5,1075
537.6,1082
537.7,1088
537.8,1096
537.9,1103
538.0,1110
538.1,1117
538.2,1124
538.3,1131
538.4,1138
538.5,1145
538.6,1151
538.7,1158
538.8,1164
538.9,1170
539.0,1176
539.1,1182
539.2,1187
539.3,1192
539.4,1198
539.5,1203
539.6,1208
539.7,1212
539.8,1216
539.9,1219
540.0,1222
540.1,1225
540.2,1227
540.3,1229
540.4,1230
540.5,1231
540.6,1232
540.7,1233
540.8,1234
540.9,1234
541.0,1235
541.1,1235
541.2,1235
541.3,1235
541.4,1235
541.5,1234
541.6,1234
541.7,1233
541.8,1231
541.9,1230
542.0,1229
542.1,1228
542.2,1227
542.3,1225
542.4,1225
542.5,1224
542.6,1223
542.7,1222
542.8,1221
542.9,1220
543.0,1219
543.1,1218
543.2,1218
543.3,1218
543.4,1217
543.5,1218
543.6,1218
543.7,1219
543.8,1220
543.9,1220
544.0,1221
544.1,1223
544.2,1224
544.3,1226
544.4,1228
544.5,1230
544.6,1232
544.7,1234
544.8,1237
544.9,1241
545.0,1244
545.1,1248
545.2,1253
545.3,1257
545.4,1263
545.5,1268
545.6,1274
545.7,1280
545.8,1286
545.9,1292
546.0,1298
546.1,1305
546.2,1311
546.3,1317
546.4,1324
546.5,1331
546.6,1338
546.7,1346
546.8,1353
546.9,1361
547.0,1368
547.1,1376
547.2,1385
547.3,1393
547.4,1401
547.5,1410
547.6,1418
547.7,1427
547.8,1437
547.9,1447
548.0,1457
548.1,1467
548.2,1477
548.3,1487
548.4,1498
548.5,1508
548.6,1518
548.7,1528
548.8,1537
548.9,1547
549.0,1557
549.1,1566
549.2,1576
549.3,1585
549.4,1595
549.5,1604
549.6,1614
549.7,1624
549.8,1634
549.9,1644
550.0,1654
550.1,1663
550.2,1674
550.3,1684
550.4,1694
550.5,1704
550.6,1714
550.7,1725
550.8,1736
550.9,1748
551.0,1759
551.1,1770
551.2,1782
551.3,1793
551.4,1805
551.5,1817
551.6,1828
551.7,1839
551.8,1850
551.9,1861
552.0,1873
552.1,1885
552.2,1897
552.3,1909
552.4,1922
552.5,1935
552.6,1950
552.7,1965
552.8,1981
552.9,1997
553.0,2013
553.1,2029
553.2,2046
553.3,2064
553.4,2082
553.5,2100
553.6,2118
553.7,2137
553.8,2157
553.9,2177
554.0,2198
554.1,2219
554.2,2240
554.3,2261
554.4,2284
554.5,2307
554.6,2330
554.7,2353
554.8,2377
554.9,2402
555.0,2428
555.1,2454
555.2,2482
555.3,2510
555.4,2539
555.5,2568
555.6,2599
555.7,2630
555.8,2660
555.9,2692
556.0,2723
556.1,2755
556.2,2787
556.3,2819
556.4,2852
556.5,2884
556.6,2917
556.7,2950
556.8,2983
556.9,3017
557.0,3052
557.1,3086
557.2,3123
557.3,3157
557.4,3191
557.5,3226
557.6,3260
557.7,3294
557.8,3326
557.9,3359
558.0,3391
558.1,3424
558.2,3456
558.3,3488
558.4,3519
558.5,3550
558.6,3581
558.7,3613
558.8,3645
558.9,3676
559.0,3707
559.1,3737
559.2,3767
559.3,3799
559.4,3830
559.5,3860
559.6,3890
559.7,3920
559.8,3950
559.9,3981
560.0,4012
560.1,4042
560.2,4072
560.3,4102
560.4,4133
560.5,4164
560.6,4196
560.7,4227
560.8,4257
560.9,4287
561.0,4318
561.1,4350
561.2,4382
561.3,4413
561.4,4444
561.5,4476
561.6,4510
561.7,4543
561.8,4576
561.9,4610
562.0,4644
562.1,4677
562.2,4711
562.3,4745
562.4,4780
562.5,4817
562.6,4851
562.7,4887
562.8,4923
562.9,4962
563.0,5000
563.1,5038
563.2,5076
563.3,5115
563.4,5154
563.5,5194
563.6,5235
563.7,5278
563.8,5319
563.9,5360
564.0,5402
564.1,5446
564.2,5490
564.3,5534
564.4,5578
564.5,5622
564.6,5667
564.7,5713
564.8,5760
564.9,5809
565.0,5855
565.1,5902
565.2,5948
565.3,5995
565.4,6042
565.5,6090
565.6,6136
565.7,6182
565.8,6228
565.9,6277
566.0,6327
566.1,6375
566.2,6422
566.3,6469
566.4,6516
566.5,6563
566.6,6612
566.7,6660
566.8,6706
566.9,6752
567.0,6797
567.1,6842
567.2,6888
567.3,6934
567.4,6977
567.5,7020
567.6,7063
567.7,7105
567.8,7149
567.9,7193
568.0,7235
568.1,7278
568.2,7319
568.3,7361
568.4,7405
568.5,7448
568.6,7490
568.7,7532
568.8,7575
568.9,7617
569.0,7662
569.1,7706
569.2,7749
569.3,7791
569.4,7833
569.5,7875
569.6,7918
569.7,7961
569.8,8001
569.9,8042
570.0,8081
570.1,8121
570.2,8162
570.3,8205
570.4,8248
570.5,8288
570.6,8329
570.7,8371
570.8,8413
570.9,8458
571.0,8504
571.1,8548
571.2,8593
571.3,8639
571.4,8687
571.5,8734
571.6,8781
571.7,8828
571.8,8876
571.9,8924
572.0,8972
572.1,9022
572.2,9074
572.3,9123
572.4,9173
572.5,9224
572.6,9277
572.7,9330
572.8,9381
572.9,9433
573.0,9486
573.1,9540
573.2,9593
573.3,9649
573.4,9707
573.5,9762
573.6,9817
573.7,9873
573.8,9929
573.9,9988
574.0,10047
574.1,10105
574.2,10162
574.3,10220
574.4,10281
574.5,10342
574.6,10400
574.7,10460
574.8,10524
574.9,10583
575.0,10643
575.1,10704
575.2,10764
575.3,10823
575.4,10881
575.5,10940
575.6,10998
575.7,11059
575.8,11119
575.9,11177
576.0,11235
576.1,11292
576.2,11351
576.3,11412
576.4,11472
576.5,11531
576.6,11590
576.7,11650
576.8,11710
576.9,11774
577.0,11838
577.1,11898
577.2,11955
577.3,12016
577.4,12078
577.5,12139
577.6,12200
577.7,12260
577.8,12316
577.9,12377
578.0,12436
578.1,12491
578.2,12549
578.3,12602
578.4,12661
578.5,12721
578.6,12777
578.7,12830
578.8,12888
578.9,12946
579.0,13004
579.1,13061
579.2,13120
579.3,13183
579.4,13241
579.5,13299
579.6,13361
579.7,13424
579.8,13486
579.9,13544
580.0,13601
580.1,13658
580.2,13718
580.3,13778
580.4,13836
580.5,13890
580.6,13942
580.7,13997
580.8,14048
580.9,14102
581.0,14155
581.1,14206
581.2,14258
581.3,14308
581.4,14357
581.5,14409
581.6,14464
581.7,14517
581.8,14565
581.9,14613
582.0,14664
582.1,14709
582.2,14754
582.3,14803
582.4,14853
582.5,14899
582.6,14942
582.7,14984
582.8,15027
582.9,15071
583.0,15119
583.1,15166
583.2,15207
583.3,15251
583.4,15291
583.5,15331
583.6,15376
583.7,15422
583.8,15464
583.9,15503
584.0,15543
584.1,15582
584.2,15626
584.3,15667
584.4,15713
584.5,15760
584.6,15801
584.7,15846
584.8,15888
584.9,15930
585.0,15979
585.1,16030
585.2,16077
585.3,16121
585.4,16166
585.5,16215
585.6,16262
585.7,16315
585.8,16368
585.9,16416
586.0,16466
586.1,16513
586.2,16560
586.3,16608
586.4,16664
586.5,16722
586.6,16772
586.7,16823
586.8,16875
586.9,16933
587.0,16990
587.1,17052
587.2,17118
587.3,17182
587.4,17243
587.5,17306
587.6,17369
587.7,17437
587.8,17510
587.9,17584
588.0,17650
588.1,17718
588.2,17792
588.3,17861
588.4,17936
588.5,18010
588.6,18079
588.7,18153
588.8,18220
588.9,18287
589.0,18354
589.1,18429
589.2,18506
589.3,18572
589.4,18637
589.5,18708
589.6,18774
589.7,18839
589.8,18909
589.9,18983
590.0,19051
590.1,19115
590.2,19177
590.3,19239
590.4,19312
590.5,19381
590.6,19441
590.7,19499
590.8,19556
590.9,19616
591.0,19671
591.1,19731
591.2,19791
591.3,19843
591.4,19890
591.5,19936
591.6,19980
591.7,20025
591.8,20076
591.9,20123
592.0,20162
592.1,20200
592.2,20240
592.3,20277
592.4,20322
592.5,20364
592.6,20400
592.7,20437
592.8,20472
592.9,20506
593.0,20542
593.1,20585
593.2,20625
593.3,20659
593.4,20692
593.5,20729
593.6,20762
593.7,20796
593.8,20837
593.9,20881
594.0,20919
594.1,20955
594.2,20992
594.3,21029
594.4,21070
594.5,21118
594.6,21165
594.7,21204
594.8,21244
594.9,21289
595.0,21330
595.1,21380
595.2,21430
595.3,21474
595.4,21517
595.5,21559
595.6,21603
595.7,21650
595.8,21696
595.9,21749
596.0,21805
596.1,21852
596.2,21904
596.3,21953
596.4,22001
596.5,22058
596.6,22117
596.7,22170
596.8,22220
596.9,22269
597.0,22321
597.1,22370
597.2,22425
597.3,22479
597.4,22524
597.5,22571
597.6,22613
597.7,22653
597.8,22693
597.9,22741
598.0,22791
598.1,22828
598.2,22865
598.3,22902
598.4,22941
598.5,22977
598.6,23018
598.7,23061
598.8,23093
598.9,23125
599.0,23154
599.1,23182
599.2,23210
599.3,23244
599.4,23279
599.5,23303
599.6,23327
599.7,23353
599.8,23377
599.9,23410
600.0,23442
600.1,23464
600.2,23487
600.3,23508
600.4,23527
600.5,23545
600.6,23571
600.7,23597
600.8,23611
600.9,23625
601.0,23638
601.1,23651
601.2,23662
601.3,23681
601.4,23702
601.5,23714
601.6,23726
601.7,23738
601.8,23751
601.9,23775
602.0,23799
602.1,23815
602.2,23833
602.3,23852
602.4,23874
602.5,23897
602.6,23929
602.7,23962
602.8,23987
602.9,24014
603.0,24039
603.1,24063
603.2,24089
603.3,24123
603.4,24156
603.5,24181
603.6,24206
603.7,24234
603.8,24260
603.9,24297
604.0,24332
604.1,24360
604.2,24390
604.3,24418
604.4,24446
604.5,24472
604.6,24510
604.7,24544
604.8,24567
604.9,24590
605.0,24614
605.1,24634
605.2,24652
605.3,24680
605.4,24707
605.5,24725
605.6,24741
605.7,24756
605.8,24771
605.9,24787
606.0,24810
606.1,24833
606.2,24846
606.3,24858
606.4,24870
606.5,24880
606.6,24899
606.7,24915
606.8,24922
606.9,24928
607.0,24932
607.1,24935
607.2,24937
607.3,24937
607.4,24944
607.5,24954
607.6,24952
607.7,24949
607.8,24946
607.9,24943
608.0,24950
608.1,24957
608.2,24954
608.3,24952
608.4,24950
608.5,24949
608.6,24947
608.7,24955
608.8,24964
608.9,24963
609.0,24961
609.1,24959
609.2,24957
609.3,24955
609.4,24962
609.5,24972
609.6,24972
609.7,24973
609.8,24973
609.9,24975
610.0,24977
610.1,24988
610.2,25002
610.3,25006
610.4,25010
610.5,25013
610.6,25015
610.7,25027
610.8,25038
610.9,25040
611.0,25043
611.1,25044
611.2,25047
611.3,25049
611.4,25060
611.5,25071
611.6,25073
611.7,25076
611.8,25079
611.9,25081
612.0,25083
612.1,25094
612.2,25106
612.3,25108
612.4,25108
612.5,25109
612.6,25110
612.7,25109
612.8,25116
612.9,25124
613.0,25120
613.1,25114
613.2,25107
613.3,25099
613.4,25100
613.5,25097
613.6,25085
613.7,25072
613.8,25059
613.9,25046
614.0,25034
614.1,25032
614.2,25030
614.3,25020
614.4,25010
614.5,25001
614.6,24993
614.7,24986
614.8,24988
614.9,24993
615.0,24987
615.1,24982
615.2,24977
615.3,24972
615.4,24979
615.5,24982
615.6,24978
615.7,24973
615.8,24967
615.9,24961
616.0,24954
616.1,24956
616.2,24956
616.3,24947
616.4,24937
616.5,24925
616.6,24913
616.7,24901
616.8,24899
616.9,24896
617.0,24883
617.1,24872
617.2,24860
617.3,24847
617.4,24834
617.5,24830
617.6,24827
617.7,24813
617.8,24799
617.9,24784
618.0,24769
618.1,24764
618.2,24755
618.3,24738
618.4,24719
618.5,24700
618.6,24680
618.7,24659
618.8,24635
618.9,24618
619.0,24603
619.1,24576
619.2,24546
619.3,24517
619.4,24488
619.5,24468
619.6,24445
619.7,24413
619.8,24383
619.9,24354
620.0,24324
620.1,24294
620.2,24273
620.3,24253
620.4,24225
620.5,24197
620.6,24168
620.7,24141
620.8,24115
620.9,24095
621.0,24077
621.1,24052
621.2,24027
621.3,24003
621.4,23977
621.5,23951
621.6,23933
621.7,23918
621.8,23893
621.9,23866
622.0,23840
622.1,23815
622.2,23797
622.3,23778
622.4,23750
622.5,23724
622.6,23699
622.7,23674
622.8,23648
622.9,23632
623.0,23617
623.1,23595
623.2,23572
623.3,23553
623.4,23534
623.5,23515
623.6,23504
623.7,23495
623.8,23478
623.9,23461
624.0,23444
624.1,23425
624.2,23406
624.3,23394
624.4,23385
624.5,23366
624.6,23344
624.7,23322
624.8,23300
624.9,23286
625.0,23270
625.1,23247
625.2,23224
625.3,23200
625.4,23173
625.5,23147
625.6,23130
625.7,23112
625.8,23086
625.9,23057
626.0,23030
626.1,23002
626.2,22974
626.3,22951
626.4,22929
626.5,22898
626.6,22865
626.7,22832
626.8,22795
626.9,22769
627.0,22742
627.1,22706
627.2,22669
627.3,22635
627.4,22600
627.5,22565
627.6,22538
627.7,22509
627.8,22475
627.9,22440
628.0,22406
628.1,22368
628.2,22332
628.3,22304
628.4,22276
628.5,22240
628.6,22203
628.7,22169
628.8,22136
628.9,22101
629.0,22077
629.1,22054
629.2,22024
629.3,21995
629.4,21965
629.5,21938
629.6,21921
629.7,21902
629.8,21877
629.9,21852
630.0,21829
630.1,21807
630.2,21785
630.3,21761
630.4,21744
630.5,21730
630.6,21707
630.7,21683
630.8,21656
630.9,21631
631.0,21613
631.1,21594
631.2,21567
631.3,21543
631.4,21518
631.5,21494
631.6,21469
631.7,21452
631.8,21435
631.9,21411
632.0,21387
632.1,21360
632.2,21334
632.3,21308
632.4,21287
632.5,21267
632.6,21237
632.7,21208
632.8,21179
632.9,21148
633.0,21117
633.1,21092
633.2,21070
633.3,21039
633.4,21005
633.5,20973
633.6,20941
633.7,20915
633.8,20888
633.9,20853
634.0,20819
634.1,20784
634.2,20748
634.3,20709
634.4,20677
634.5,20644
634.6,20604
634.7,20563
634.8,20517
634.9,20473
635.0,20430
635.1,20391
635.2,20353
635.3,20310
635.4,20268
635.5,20227
635.6,20183
635.7,20142
635.8,20109
635.9,20079
636.0,20041
636.1,20000
636.2,19964
636.3,19928
636.4,19899
636.5,19870
636.6,19834
636.7,19800
636.8,19767
636.9,19732
637.0,19700
637.1,19677
637.2,19653
637.3,19623
637.4,19592
637.5,19563
637.6,19536
637.7,19508
637.8,19487
637.9,19466
638.0,19441
638.1,19416
638.2,19391
638.3,19365
638.4,19347
638.5,19328
638.6,19303
638.7,19278
638.8,19251
638.9,19226
639.0,19201
639.1,19181
639.2,19160
639.3,19135
639.4,19111
639.5,19087
639.6,19061
639.7,19036
639.8,19018
639.9,19000
640.0,18975
640.1,18948
640.2,18923
640.3,18897
640.4,18877
640.5,18853
640.6,18822
640.7,18792
640.8,18761
640.9,18727
641.0,18695
641.1,18670
641.2,18642
641.3,18607
641.4,18571
641.5,18537
641.6,18504
641.7,18470
641.8,18435
641.9,18405
642.0,18378
642.1,18345
642.2,18312
642.3,18275
642.4,18240
642.5,18210
642.6,18180
642.7,18142
642.8,18101
642.9,18061
643.0,18021
643.1,17978
643.2,17941
643.3,17905
643.4,17864
643.5,17823
643.6,17778
643.7,17737
643.8,17697
643.9,17663
644.0,17629
644.1,17588
644.2,17550
644.3,17511
644.4,17472
644.5,17430
644.6,17394
644.7,17362
644.8,17323
644.9,17281
645.0,17243
645.1,17205
645.2,17174
645.3,17141
645.4,17103
645.5,17068
645.6,17034
645.7,16999
645.8,16962
645.9,16933
646.0,16905
646.1,16873
646.2,16840
646.3,16804
646.4,16771
646.5,16739
646.6,16712
646.7,16686
646.8,16652
646.9,16620
647.0,16587
647.1,16551
647.2,16517
647.3,16489
647.4,16463
647.5,16431
647.6,16398
647.7,16368
647.8,16340
647.9,16318
648.0,16296
648.1,16270
648.2,16246
648.3,16222
648.4,16198
648.5,16173
648.6,16153
648.7,16134
648.8,16109
648.9,16082
649.0,16057
649.1,16031
649.2,16006
649.3,15984
649.4,15962
649.5,15934
649.6,15906
649.7,15877
649.8,15846
649.9,15821
650.0,15794
650.1,15761
650.2,15727
650.3,15690
650.4,15656
650.5,15622
650.6,15593
650.7,15562
650.8,15524
650.9,15488
651.0,15451
651.1,15411
651.2,15371
651.3,15337
651.4,15301
651.5,15258
651.6,15212
651.7,15169
651.8,15127
651.9,15091
652.0,15052
652.1,15008
652.2,14967
652.3,14926
652.4,14885
652.5,14841
652.6,14805
652.7,14769
652.8,14726
652.9,14681
653.0,14640
653.1,14599
653.2,14559
653.3,14517
653.4,14481
653.5,14449
653.6,14413
653.7,14377
653.8,14341
653.9,14307
654.0,14280
654.1,14253
654.2,14223
654.3,14193
654.4,14166
654.5,14140
654.6,14122
654.7,14102
654.8,14080
654.9,14060
655.0,14042
655.1,14023
655.2,14006
655.3,13989
655.4,13977
655.5,13965
655.6,13947
655.7,13930
655.8,13913
655.9,13896
656.0,13878
656.1,13864
656.2,13852
656.3,13834
656.4,13818
656.5,13800
656.6,13783
656.7,13773
656.8,13762
656.9,13746
657.0,13731
657.1,13716
657.2,13701
657.3,13686
657.4,13676
657.5,13666
657.6,13652
657.7,13637
657.8,13619
657.9,13603
658.0,13586
658.1,13572
658.2,13559
658.3,13539
658.4,13520
658.5,13499
658.6,13478
658.7,13455
658.8,13436
658.9,13419
659.0,13396
659.1,13370
659.2,13347
659.3,13323
659.4,13303
659.5,13282
659.6,13256
659.7,13231
659.8,13205
659.9,13180
660.0,13152
660.1,13130
660.2,13108
660.3,13082
660.4,13055
660.5,13028
660.6,13002
660.7,12977
660.8,12954
660.9,12932
661.0,12906
661.1,12879
661.2,12852
661.3,12822
661.4,12797
661.5,12770
661.6,12738
661.7,12704
661.8,12666
661.9,12630
662.0,12593
662.1,12560
662.2,12524
662.3,12481
662.4,12439
662.5,12397
662.6,12355
662.7,12309
662.8,12269
662.9,12230
663.0,12185
663.1,12138
663.2,12094
663.3,12050
663.4,12011
663.5,11968
663.6,11921
663.7,11877
663.8,11832
663.9,11787
664.0,11737
664.1,11695
664.2,11653
664.3,11606
664.4,11560
664.5,11510
664.6,11464
664.7,11419
664.8,11372
664.9,11330
665.0,11294
665.1,11253
665.2,11213
665.3,11171
665.4,11133
665.5,11101
665.6,11071
665.7,11037
665.8,11003
665.9,10973
666.0,10945
666.1,10923
666.2,10900
666.3,10876
666.4,10854
666.5,10834
666.6,10815
666.7,10797
666.8,10781
666.9,10771
667.0,10764
667.1,10751
667.2,10741
667.3,10733
667.4,10725
667.5,10718
667.6,10715
667.7,10714
667.8,10708
667.9,10701
668.0,10694
668.1,10688
668.2,10687
668.3,10686
668.4,10679
668.5,10672
668.6,10666
668.7,10661
668.8,10657
668.9,10658
669.0,10659
669.1,10655
669.2,10652
669.3,10647
669.4,10641
669.5,10635
669.6,10632
669.7,10630
669.8,10619
669.9,10608
670.0,10595
670.1,10581
670.2,10565
670.3,10551
670.4,10540
670.5,10522
670.6,10504
670.7,10483
670.8,10463
670.9,10447
671.0,10430
671.1,10406
671.2,10384
671.3,10361
671.4,10337
671.5,10311
671.6,10289
671.7,10267
671.8,10239
671.9,10212
672.0,10180
672.1,10150
672.2,10120
672.3,10092
672.4,10063
672.5,10027
672.6,9993
672.7,9959
672.8,9923
672.9,9894
673.0,9864
673.1,9831
673.2,9797
673.3,9761
673.4,9729
673.5,9697
673.6,9668
673.7,9638
673.8,9602
673.9,9567
674.0,9532
674.1,9497
674.2,9459
674.3,9426
674.4,9395
674.5,9360
674.6,9325
674.7,9288
674.8,9254
674.9,9226
675.0,9196
675.1,9162
675.2,9131
675.3,9100
675.4,9068
675.5,9035
675.6,9008
675.7,8980
675.8,8950
675.9,8919
676.0,8886
676.1,8855
676.2,8823
676.3,8795
676.4,8765
676.5,8731
676.6,8697
676.7,8663
676.8,8626
676.9,8590
677.0,8559
677.1,8528
677.2,8492
677.3,8455
677.4,8421
677.5,8387
677.6,8357
677.7,8325
677.8,8288
677.9,8253
678.0,8217
678.1,8181
678.2,8141
678.3,8103
678.4,8068
678.5,8034
678.6,7995
678.7,7952
678.8,7913
678.9,7874
679.0,7833
679.1,7795
679.2,7760
679.3,7721
679.4,7681
679.5,7639
679.6,7599
679.7,7564
679.8,7530
679.9,7491
680.0,7451
680.1,7415
680.2,7380
680.3,7345
680.4,7314
680.5,7284
680.6,7252
680.7,7220
680.8,7187
680.9,7157
681.0,7128
681.1,7104
681.2,7081
681.3,7054
681.4,7030
681.5,7007
681.6,6985
681.7,6964
681.8,6948
681.9,6934
682.0,6917
682.1,6900
682.2,6883
682.3,6866
682.4,6855
682.5,6845
682.6,6832
682.7,6819
682.8,6808
682.9,6798
683.0,6790
683.1,6787
683.2,6786
683.3,6783
683.4,6781
683.5,6780
683.6,6780
683.7,6782
683.8,6787
683.9,6795
684.0,6798
684.1,6802
684.2,6806
684.3,6809
684.4,6817
684.5,6824
684.6,6826
684.7,6828
684.8,6829
684.9,6829
685.0,6828
685.1,6830
685.2,6830
685.3,6827
685.4,6822
685.5,6817
685.6,6812
685.7,6807
685.8,6806
685.9,6805
686.0,6800
686.1,6794
686.2,6788
686.3,6783
686.4,6781
686.5,6776
686.6,6767
686.7,6757
686.8,6746
686.9,6733
687.0,6719
687.1,6709
687.2,6697
687.3,6681
687.4,6664
687.5,6645
687.6,6628
687.7,6610
687.8,6595
687.9,6579
688.0,6557
688.1,6535
688.2,6513
688.3,6491
688.4,6467
688.5,6447
688.6,6427
688.7,6403
688.8,6378
688.9,6356
689.0,6335
689.1,6318
689.2,6299
689.3,6277
689.4,6257
689.5,6238
689.6,6218
689.7,6197
689.8,6177
689.9,6160
690.0,6143
690.1,6122
690.2,6100
690.3,6079
690.4,6058
690.5,6039
690.6,6020
690.7,5996
690.8,5973
690.9,5949
691.0,5922
691.1,5897
691.2,5875
691.3,5854
691.4,5829
691.5,5804
691.6,5782
691.7,5761
691.8,5740
691.9,5722
692.0,5706
692.1,5688
692.2,5671
692.3,5654
692.4,5636
692.5,5617
692.6,5602
692.7,5587
692.8,5567
692.9,5548
693.0,5529
693.1,5509
693.2,5489
693.3,5471
693.4,5455
693.5,5436
693.6,5417
693.7,5397
693.8,5378
693.9,5363
694.0,5348
694.1,5329
694.2,5311
694.3,5294
694.4,5278
694.5,5263
694.6,5250
694.7,5238
694.8,5224
694.9,5210
695.0,5195
695.1,5182
695.2,5169
695.3,5159
695.4,5150
695.5,5137
695.6,5125
695.7,5115
695.8,5105
695.9,5099
696.0,5094
696.1,5088
696.2,5082
696.3,5078
696.4,5074
696.5,5071
696.6,5071
696.7,5071
696.8,5069
696.9,5067
697.0,5064
697.1,5061
697.2,5057
697.3,5053
697.4,5052
697.5,5050
697.6,5046
697.7,5041
697.8,5036
697.9,5031
698.0,5026
698.1,5021
698.2,5017
698.3,5015
698.4,5014
698.5,5009
698.6,5004
698.7,4997
698.8,4991
698.9,4984
699.0,4976
699.1,4969
699.2,4961
699.3,4947
699.4,4932
699.5,4915
699.6,4898
699.7,4878
699.8,4861
699.9,4843
700.0,4821
700.1,4798
700.2,4777
700.3,4753
700.4,4732
700.5,4710
700.6,4690
700.7,4669
700.8,4644
700.9,4620
701.0,4596
701.1,4571
701.2,4548
701.3,4524
701.4,4503
701.5,4482
701.6,4456
701.7,4431
701.8,4408
701.9,4383
702.0,4360
702.1,4336
702.2,4315
702.3,4295
702.4,4271
702.5,4250
702.6,4230
702.7,4211
702.8,4194
702.9,4176
703.0,4161
703.1,4147
703.2,4130
703.3,4114
703.4,4099
703.5,4083
703.6,4069
703.7,4055
703.8,4044
703.9,4034
704.0,4024
704.1,4015
704.2,4009
704.3,4005
704.4,4001
704.5,3999
704.6,3998
704.7,3998
704.8,3997
704.9,3996
705.0,3995
705.1,3994
705.2,3994
705.3,3994
705.4,3996
705.5,3999
705.6,4001
705.7,4002
705.8,4004
705.9,4006
706.0,4008
706.1,4009
706.2,4013
706.3,4017
706.4,4018
706.5,4020
706.6,4022
706.7,4025
706.8,4028
706.9,4032
707.0,4037
707.1,4044
707.2,4048
707.3,4053
707.4,4058
707.5,4062
707.6,4065
707.7,4068
707.8,4072
707.9,4077
708.0,4079
708.1,4080
708.2,4081
708.3,4082
708.4,4082
708.5,4082
708.6,4084
708.7,4086
708.8,4086
708.9,4085
709.0,4084
709.1,4082
709.2,4081
709.3,4079
709.4,4080
709.5,4081
709.6,4079
709.7,4078
709.8,4077
709.9,4075
710.0,4072
710.1,4068
710.2,4065
710.3,4061
710.4,4053
710.5,4045
710.6,4034
710.7,4022
710.8,4011
710.9,3998
711.0,3988
711.1,3977
711.2,3964
711.3,3951
711.4,3937
711.5,3922
711.6,3908
711.7,3894
711.8,3882
711.9,3869
712.0,3852
712.1,3836
712.2,3818
712.3,3802
712.4,3785
712.5,3766
712.6,3750
712.7,3733
712.8,3712
712.9,3693
713.0,3671
713.1,3651
713.2,3628
713.3,3605
713.4,3586
713.5,3567
713.6,3546
713.7,3527
713.8,3508
713.9,3491
714.0,3473
714.1,3455
714.2,3441
714.3,3427
714.4,3411
714.5,3395
714.6,3377
714.7,3361
714.8,3344
714.9,3326
715.0,3312
715.1,3297
715.2,3280
715.3,3264
715.4,3248
715.5,3232
715.6,3216
715.7,3199
715.8,3185
715.9,3171
716.0,3156
716.1,3143
716.2,3129
716.3,3116
716.4,3103
716.5,3091
716.6,3082
716.7,3073
716.8,3062
716.9,3051
717.0,3039
717.1,3028
717.2,3017
717.3,3006
717.4,2997
717.5,2988
717.6,2978
717.7,2967
717.8,2957
717.9,2948
718.0,2938
718.1,2929
718.2,2918
718.3,2905
718.4,2892
718.5,2878
718.6,2863
718.7,2849
718.8,2834
718.9,2821
719.0,2807
719.1,2792
719.2,2777
719.3,2764
719.4,2749
719.5,2736
719.6,2723
719.7,2710
719.8,2699
719.9,2687
720.0,2674
720.1,2661
720.2,2648
720.3,2636
720.4,2624
720.5,2612
720.6,2601
720.7,2589
720.8,2576
720.9,2564
721.0,2550
721.1,2539
721.2,2527
721.3,2516
721.4,2506
721.5,2498
721.6,2489
721.7,2482
721.8,2476
721.9,2471
722.0,2468
722.1,2466
722.2,2465
722.3,2464
722.4,2463
722.5,2462
722.6,2461
722.7,2461
722.8,2460
722.9,2461
723.0,2462
723.1,2462
723.2,2461
723.3,2461
723.4,2460
723.5,2460
723.6,2460
723.7,2460
723.8,2460
723.9,2460
724.0,2458
724.1,2455
724.2,2453
724.3,2450
724.4,2446
724.5,2442
724.6,2437
724.7,2433
724.8,2428
724.9,2422
725.0,2415
725.1,2408
725.2,2400
725.3,2391
725.4,2382
725.5,2372
725.6,2361
725.7,2347
725.8,2331
725.9,2314
726.0,2294
726.1,2275
726.2,2254
726.3,2230
726.4,2206
726.5,2179
726.6,2151
726.7,2124
726.8,2095
726.9,2068
727.0,2040
727.1,2011
727.2,1984
727.3,1956
727.4,1929
727.5,1905
727.6,1879
727.7,1855
727.8,1832
727.9,1809
728.0,1786
728.1,1762
728.2,1738
728.3,1711
728.4,1683
728.5,1657
728.6,1631
728.7,1605
728.8,1580
728.9,1554
729.0,1532
729.1,1509
729.2,1490
729.3,1474
729.4,1459
729.5,1447
729.6,1436
729.7,1426
729.8,1419
729.9,1413
730.0,1409
730.1,1407
730.2,1406
730.3,1406
730.4,1407
730.5,1410
730.6,1414
730.7,1419
730.8,1425
730.9,1432
731.0,1440
731.1,1448
731.2,1458
731.3,1467
731.4,1479
731.5,1492
731.6,1506
731.7,1522
731.8,1540
731.9,1559
732.0,1580
732.1,1600
732.2,1622
732.3,1643
732.4,1667
732.5,1690
732.6,1714
732.7,1737
732.8,1760
732.9,1783
733.0,1810
733.1,1836
733.2,1864
733.3,1893
733.4,1924
733.5,1954
733.6,1984
733.7,2012
733.8,2043
733.9,2070
734.0,2096
734.1,2122
734.2,2146
734.3,2168
734.4,2189
734.5,2206
734.6,2224
734.7,2240
734.8,2256
734.9,2272
735.0,2286
735.1,2300
735.2,2313
735.3,2328
735.4,2344
735.5,2358
735.6,2374
735.7,2391
735.8,2409
735.9,2425
736.0,2440
736.1,2457
736.2,2471
736.3,2484
736.4,2495
736.5,2506
736.6,2514
736.7,2520
736.8,2524
736.9,2526
737.0,2526
737.1,2525
737.2,2522
737.3,2519
737.4,2516
737.5,2512
737.6,2507
737.7,2501
737.8,2495
737.9,2489
738.0,2482
738.1,2475
738.2,2467
738.3,2458
738.4,2446
738.5,2433
738.6,2419
738.7,2404
738.8,2387
738.9,2371
739.0,2353
739.1,2335
739.2,2314
739.3,2293
739.4,2272
739.5,2250
739.6,2229
739.7,2208
739.8,2184
739.9,2160
740.0,2137
740.1,2112
740.2,2090
740.3,2067
740.4,2047
740.5,2028
740.6,2009
740.7,1992
740.8,1975
740.9,1958
741.0,1943
741.1,1928
741.2,1913
741.3,1900
741.4,1887
741.5,1872
741.6,1858
741.7,1843
741.8,1830
741.9,1817
742.0,1806
742.1,1796
742.2,1788
742.3,1779
742.4,1771
742.5,1764
742.6,1759
742.7,1754
742.8,1751
742.9,1749
743.0,1749
743.1,1749
743.2,1749
743.3,1751
743.4,1754
743.5,1758
743.6,1762
743.7,1767
743.8,1772
743.9,1777
744.0,1781
744.1,1786
744.2,1792
744.3,1798
744.4,1805
744.5,1812
744.6,1820
744.7,1828
744.8,1837
744.9,1845
745.0,1854
745.1,1861
745.2,1868
745.3,1874
745.4,1878
745.5,1881
745.6,1883
745.7,1884
745.8,1884
745.9,1883
746.0,1883
746.1,1884
746.2,1886
746.3,1889
746.4,1893
746.5,1898
746.6,1903
746.7,1908
746.8,1914
746.9,1921
747.0,1928
747.1,1932
747.2,1936
747.3,1939
747.4,1940
747.5,1940
747.6,1939
747.7,1938
747.8,1936
747.9,1935
748.0,1932
748.1,1930
748.2,1928
748.3,1927
748.4,1928
748.5,1930
748.6,1935
748.7,1941
748.8,1948
748.9,1955
749.0,1964
749.1,1974
749.2,1984
749.3,1994
749.4,2005
749.5,2015
749.6,2024
749.7,2033
749.8,2041
749.9,2050
750.0,2059
750.1,2071
750.2,2083
750.3,2095
750.4,2109
750.5,2124
750.6,2139
750.7,2155
750.8,2172
750.9,2189
751.0,2205
751.1,2219
751.2,2232
751.3,2244
751.4,2256
751.5,2266
751.6,2274
751.7,2282
751.8,2290
751.9,2298
752.0,2306
752.1,2313
752.2,2320
752.3,2328
752.4,2335
752.5,2343
752.6,2350
752.7,2357
752.8,2364
752.9,2368
753.0,2371
753.1,2373
753.2,2372
753.3,2369
753.4,2364
753.5,2358
753.6,2350
753.7,2342
753.8,2330
753.9,2317
754.0,2301
754.1,2285
754.2,2266
754.3,2245
754.4,2223
754.5,2200
754.6,2176
754.7,2149
754.8,2120
754.9,2093
755.0,2062
755.1,2029
755.2,1997
755.3,1964
755.4,1931
755.5,1896
755.6,1864
755.7,1828
755.8,1792
755.9,1759
756.0,1724
756.1,1691
756.2,1659
756.3,1627
756.4,1593
756.5,1558
756.6,1525
756.7,1490
756.8,1454
756.9,1420
757.0,1385
757.1,1348
757.2,1311
757.3,1276
757.4,1244
757.5,1211
757.6,1180
757.7,1153
757.8,1126
757.9,1102
758.0,1079
758.1,1057
758.2,1034
758.3,1011
758.4,991
758.5,969
758.6,946
758.7,924
758.8,902
758.9,877
759.0,853
759.1,832
759.2,810
759.3,789
759.4,769
759.5,749
759.6,729
759.7,711
759.8,694
759.9,679
760.0,664
760.1,648
760.2,634
760.3,619
760.4,604
760.5,590
760.6,577
760.7,564
760.8,550
760.9,537
761.0,524
761.1,513
761.2,503
761.3,495
761.4,489
761.5,484
761.6,481
761.7,480
761.8,482
761.9,486
762.0,492
762.1,500
762.2,510
762.3,520
762.4,531
762.5,542
762.6,554
762.7,566
762.8,579
762.9,594
763.0,609
763.1,626
763.2,644
763.3,664
763.4,685
763.5,710
763.6,736
763.7,761
763.8,787
763.9,814
764.0,840
764.1,865
764.2,892
764.3,917
764.4,944
764.5,971
764.6,996
764.7,1022
764.8,1049
764.9,1076
765.0,1103
765.1,1133
765.2,1161
765.3,1188
765.4,1216
765.5,1246
765.6,1275
765.7,1303
765.8,1332
765.9,1359
766.0,1387
766.1,1413
766.2,1436
766.3,1459
766.4,1480
766.5,1500
766.6,1516
766.7,1531
766.8,1547
766.9,1560
767.0,1575
767.1,1591
767.2,1608
767.3,1626
767.4,1645
767.5,1662
767.6,1681
767.7,1699
767.8,1715
767.9,1731
768.0,1747
768.1,1761
768.2,1774
768.3,1787
768.4,1798
768.5,1809
768.6,1822
768.7,1835
768.8,1848
768.9,1863
769.0,1877
769.1,1890
769.2,1904
769.3,1919
769.4,1933
769.5,1947
769.6,1961
769.7,1974
769.8,1987
769.9,1998
770.0,2008
770.1,2017
770.2,2022
770.3,2025
770.4,2026
770.5,2024
770.6,2021
770.7,2018
770.8,2012
770.9,2007
771.0,2001
771.1,1995
771.2,1990
771.3,1987
771.4,1984
771.5,1981
771.6,1976
771.7,1972
771.8,1965
771.9,1958
772.0,1947
772.1,1935
772.2,1923
772.3,1909
772.4,1892
772.5,1875
772.6,1857
772.7,1840
772.8,1822
772.9,1803
773.0,1784
773.1,1768
773.2,1751
773.3,1732
773.4,1713
773.5,1693
773.6,1674
773.7,1655
773.8,1634
773.9,1613
774.0,1592
774.1,1573
774.2,1554
774.3,1533
774.4,1514
774.5,1496
774.6,1479
774.7,1464
774.8,1451
774.9,1440
775.0,1431
775.1,1424
775.2,1418
775.3,1414
775.4,1411
775.5,1408
775.6,1408
775.7,1408
775.8,1408
775.9,1409
776.0,1409
776.1,1407
776.2,1405
776.3,1404
776.4,1402
776.5,1401
776.6,1401
776.7,1401
776.8,1404
776.9,1409
777.0,1414
777.1,1422
777.2,1430
777.3,1437
777.4,1444
777.5,1450
777.6,1456
777.7,1460
777.8,1462
777.9,1461
778.0,1458
778.1,1454
778.2,1449
778.3,1443
778.4,1435
778.5,1426
778.6,1415
778.7,1403
778.8,1391
778.9,1376
779.0,1359
779.1,1340
779.2,1321
779.3,1303
779.4,1282
779.5,1260
779.6,1238
779.7,1216
779.8,1194
779.9,1169
780.0,1145
780.1,1119
780.2,1091
780.3,1064
780.4,1035
780.5,1005
780.6,972
780.7,940
780.8,909
780.9,874
781.0,837
781.1,800
781.2,762
781.3,726
781.4,689
781.5,649
781.6,609
781.7,569
781.8,530
781.9,494
782.0,457
782.1,421
782.2,387
782.3,356
782.4,327
782.5,299
782.6,272
782.7,247
782.8,224
782.9,205
783.0,186
783.1,168
783.2,154
783.3,142
783.4,132
783.5,124
783.6,120
783.7,119
783.8,120
783.9,126
784.0,135
784.1,147
784.2,162
784.3,179
784.4,199
784.5,224
784.6,250
784.7,278
784.8,309
784.9,338
785.0,369
785.1,401
785.2,435
785.3,468
785.4,500
785.5,534
785.6,569
785.7,603
785.8,636
785.9,665
786.0,694
786.1,723
786.2,750
786.3,776
786.4,798
786.5,821
786.6,843
786.7,864
786.8,885
786.9,904
787.0,923
787.1,940
787.2,955
787.3,969
787.4,980
787.5,989
787.6,995
787.7,999
787.8,1000
787.9,999
788.0,998
788.1,994
788.2,989
788.3,981
788.4,970
788.5,957
788.6,940
788.7,921
788.8,901
788.9,879
789.0,856
789.1,829
789.2,801
789.3,773
789.4,746
789.5,720
789.6,694
789.7,666
789.8,637
789.9,608
790.0,580
790.1,550
790.2,518
790.3,486
790.4,455
790.5,427
790.6,400
790.7,373
790.8,347
790.9,323
791.0,302
791.1,281
791.2,261
791.3,241
791.4,222
791.5,204
791.6,186
791.7,169
791.8,154
791.9,141
792.0,131
792.1,121
792.2,113
792.3,107
792.4,103
792.5,100
792.6,98
792.7,95
792.8,93
792.9,90
793.0,88
793.1,87
793.2,85
793.3,84
793.4,82
793.5,81
793.6,79
793.7,77
793.8,74
793.9,70
794.0,65
794.1,60
794.2,55
794.3,49
794.4,44
794.5,39
794.6,34
794.7,30
794.8,26
794.9,24
795.0,22
795.1,20
795.2,18
795.3,15
795.4,14
795.5,12
795.6,10
795.7,8
795.8,6
795.9,4
796.0,3
796.1,2
796.2,1
796.3,1
796.4,1
796.5,0
796.6,1
796.7,1
796.8,3
796.9,4
797.0,5
797.1,7
797.2,8
797.3,10
797.4,12
797.5,14
797.6,15
797.7,16
797.8,17
797.9,17
798.0,18
798.1,19
798.2,20
798.3,22
798.4,23
798.5,25
798.6,26
798.7,28
798.8,29
798.9,31
799.0,32
799.1,33
799.2,34
799.3,34
799.4,34
799.5,34
799.6,34
799.7,34
799.8,34
799.9,34
800.0,34