nm,INT
500.0,146
500.1,147
500.2,147
500.3,148
500.4,148
500.5,148
500.6,147
500.7,147
500.8,146
500.9,146
501.0,145
501.1,144
501.2,143
501.3,142
501.4,141
501.5,139
501.6,138
501.7,136
501.8,135
501.9,134
502.0,132
502.1,131
502.2,129
502.3,128
502.4,126
502.5,124
502.6,123
502.7,121
502.8,119
502.9,118
503.0,116
503.1,114
503.2,112
503.3,111
503.4,109
503.5,108
503.6,106
503.7,105
503.8,103
503.9,102
504.0,101
504.1,99
504.2,98
504.3,97
504.4,96
504.5,95
504.6,94
504.7,93
504.8,92
504.9,91
505.0,90
505.1,89
505.2,88
505.3,87
505.4,86
505.5,85
505.6,83
505.7,82
505.8,81
505.9,80
506.0,79
506.1,78
506.2,77
506.3,76
506.4,75
506.5,75
506.6,74
506.7,74
506.8,74
506.9,74
507.0,74
507.1,74
507.2,74
507.3,75
507.4,75
507.5,75
507.6,75
507.7,75
507.8,75
507.9,76
508.0,76
508.1,76
508.2,76
508.3,77
508.4,77
508.5,77
508.6,78
508.7,78
508.8,78
508.9,79
509.0,79
509.1,80
509.2,80
509.3,81
509.4,81
509.5,82
509.6,83
509.7,83
509.8,85
509.9,86
510.0,87
510.1,88
510.2,90
510.3,91
510.4,93
510.5,95
510.6,97
510.7,99
510.8,101
510.9,104
511.0,106
511.1,109
511.2,112
511.3,114
511.4,117
511.5,120
511.6,123
511.7,126
511.8,130
511.9,133
512.0,136
512.1,140
512.2,143
512.3,147
512.4,152
512.5,156
512.6,161
512.7,165
512.8,170
512.9,175
513.0,180
513.1,185
513.2,190
513.3,194
513.4,199
513.5,203
513.6,207
513.7,212
513.8,216
513.9,220
514.0,224
514.1,228
514.2,231
514.3,235
514.4,239
514.5,243
514.6,247
514.7,251
514.8,255
514.9,259
515.0,263
515.1,267
515.2,271
515.3,274
515.4,278
515.5,281
515.6,285
515.7,287
515.8,290
515.9,292
516.0,294
516.1,296
516.2,298
516.3,299
516.4,301
516.5,302
516.6,303
516.7,304
516.8,305
516.9,305
517.0,306
517.1,307
517.2,307
517.3,308
517.4,308
517.5,308
517.6,307
517.7,307
517.8,307
517.9,306
518.0,305
518.1,304
518.2,303
518.3,301
518.4,300
518.5,299
518.6,298
518.7,296
518.8,295
518.9,294
519.0,293
519.1,292
519.2,291
519.3,290
519.4,289
519.5,288
519.6,287
519.7,287
519.8,286
519.9,285
520.0,285
520.1,284
520.2,284
520.3,283
520.4,282
520.5,282
520.6,281
520.7,280
520.8,279
520.9,279
521.0,278
521.1,277
521.2,276
521.3,275
521.4,274
521.5,273
521.6,272
521.7,271
521.8,269
521.9,268
522.0,267
522.1,266
522.2,265
522.3,264
522.4,263
522.5,262
522.6,261
522.7,261
522.8,260
522.9,260
523.0,260
523.1,260
523.2,260
523.3,261
523.4,262
523.5,263
523.6,264
523.7,265
523.8,267
523.9,269
524.0,271
524.1,273
524.2,275
524.3,277
524.4,279
524.5,282
524.6,284
524.7,287
524.8,290
524.9,294
525.0,297
525.1,301
525.2,305
525.3,310
525.4,315
525.5,321
525.6,327
525.7,334
525.8,341
525.9,348
526.0,357
526.1,366
526.2,375
526.3,385
526.4,396
526.5,407
526.6,418
526.7,429
526.8,440
526.9,453
527.0,465
527.1,477
527.2,490
527.3,502
527.4,515
527.5,529
527.6,542
527.7,556
527.8,569
527.9,584
528.0,598
528.1,613
528.2,629
528.3,643
528.4,659
528.5,675
528.6,692
528.7,709
528.8,726
528.9,744
529.0,761
529.1,779
529.2,797
529.3,815
529.4,832
529.5,850
529.6,868
529.7,885
529.8,902
529.9,918
530.0,935
530.1,952
530.2,968
530.3,985
530.4,1001
530.5,1017
530.6,1033
530.7,1050
530.8,1066
530.9,1082
531.0,1098
531.1,1115
531.2,1131
531.3,1147
531.4,1163
531.5,1179
531.6,1195
531.7,1212
531.8,1228
531.9,1245
532.0,1261
532.1,1278
532.2,1294
532.3,1311
532.4,1327
532.5,1343
532.6,1360
532.7,1377
532.8,1393
532.9,1407
533.0,1423
533.1,1440
533.2,1455
533.3,1471
533.4,1487
533.5,1502
533.6,1517
533.7,1532
533.8,1547
533.9,1563
534.0,1578
534.1,1592
534.2,1607
534.3,1622
534.4,1636
534.5,1650
534.6,1665
534.7,1679
534.8,1694
534.9,1709
535.0,1724
535.1,1739
535.2,1754
535.3,1769
535.4,1785
535.5,1801
535.6,1816
535.7,1831
535.8,1846
535.9,1861
536.0,1875
536.1,1889
536.2,1903
536.3,1917
536.4,1931
536.5,1944
536.6,1958
536.7,1972
536.8,1985
536.9,1999
537.0,2013
537.1,2026
537.2,2040
537.3,2054
537.4,2069
537.5,2082
537.6,2095
537.7,2109
537.8,2123
537.9,2138
538.0,2152
538.1,2166
538.2,2180
538.3,2193
538.4,2208
538.5,2222
538.6,2236
538.7,2250
538.8,2264
538.9,2278
539.0,2292
539.1,2306
539.2,2319
539.3,2334
539.4,2348
539.5,2363
539.6,2378
539.7,2394
539.8,2409
539.9,2424
540.0,2440
540.1,2456
540.2,2472
540.3,2487
540.4,2502
540.5,2516
540.6,2531
540.7,2545
540.8,2559
540.9,2573
541.0,2587
541.1,2601
541.2,2616
541.3,2631
541.4,2646
541.5,2661
541.6,2676
541.7,2691
541.8,2706
541.9,2722
542.0,2738
542.1,2753
542.2,2768
542.3,2784
542.4,2801
542.5,2818
542.6,2835
542.7,2852
542.8,2869
542.9,2887
543.0,2905
543.1,2924
543.2,2944
543.3,2963
543.4,2983
543.5,3004
543.6,3026
543.7,3047
543.8,3068
543.9,3091
544.0,3115
544.1,3139
544.2,3165
544.3,3191
544.4,3216
544.5,3242
544.6,3269
544.7,3295
544.8,3323
544.9,3351
545.0,3378
545.1,3407
545.2,3436
545.3,3464
545.4,3494
545.5,3526
545.6,3559
545.7,3592
545.8,3627
545.9,3663
546.0,3701
546.1,3738
546.2,3776
546.3,3814
546.4,3853
546.5,3893
546.6,3933
546.7,3974
546.8,4014
546.9,4054
547.0,4094
547.1,4136
547.2,4178
547.3,4219
547.4,4261
547.5,4303
547.6,4345
547.7,4388
547.8,4433
547.9,4478
548.0,4522
548.1,4567
548.2,4613
548.3,4662
548.4,4711
548.5,4758
548.6,4805
548.7,4852
548.8,4899
548.9,4945
549.0,4993
549.1,5042
549.2,5089
549.3,5135
549.4,5182
549.5,5229
549.6,5278
549.7,5327
549.8,5375
549.9,5424
550.0,5473
550.1,5522
550.2,5573
550.3,5625
550.4,5675
550.5,5726
550.6,5777
550.7,5827
550.8,5879
550.9,5931
551.0,5983
551.1,6034
551.2,6086
551.3,6139
551.4,6194
551.5,6250
551.6,6306
551.7,6363
551.8,6422
551.9,6482
552.0,6545
552.1,6609
552.2,6673
552.3,6738
552.4,6805
552.5,6873
552.6,6944
552.7,7018
552.8,7093
552.9,7164
553.0,7237
553.1,7310
553.2,7384
553.3,7460
553.4,7537
553.5,7613
553.6,7690
553.7,7768
553.8,7847
553.9,7928
554.0,8011
554.1,8093
554.2,8177
554.3,8262
554.4,8350
554.5,8438
554.6,8525
554.7,8613
554.8,8701
554.9,8790
555.0,8880
555.1,8971
555.2,9064
555.3,9153
555.4,9243
555.5,9333
555.6,9426
555.7,9519
555.8,9609
555.9,9700
556.0,9790
556.1,9880
556.2,9970
556.3,10062
556.4,10155
556.5,10244
556.6,10334
556.7,10422
556.8,10511
556.9,10602
557.0,10693
557.1,10782
557.2,10877
557.3,10964
557.4,11051
557.5,11142
557.6,11232
557.7,11318
557.8,11405
557.9,11493
558.0,11581
558.1,11672
558.2,11765
558.3,11854
558.4,11944
558.5,12034
558.6,12124
558.7,12219
558.8,12314
558.9,12407
559.0,12500
559.1,12593
559.2,12687
559.3,12786
559.4,12886
559.5,12984
559.6,13082
559.7,13182
559.8,13283
559.9,13389
560.0,13495
560.1,13600
560.2,13705
560.3,13812
560.4,13920
560.5,14033
560.6,14147
560.7,14258
560.8,14370
560.9,14484
561.0,14599
561.1,14719
561.2,14840
561.3,14957
561.4,15074
561.5,15193
561.6,15320
561.7,15442
561.8,15566
561.9,15691
562.0,15812
562.1,15934
562.2,16056
562.3,16180
562.4,16308
562.5,16439
562.6,16565
562.7,16693
562.8,16822
562.9,16956
563.0,17090
563.1,17220
563.2,17352
563.3,17484
563.4,17617
563.5,17751
563.6,17890
563.7,18031
563.8,18166
563.9,18302
564.0,18439
564.1,18583
564.2,18725
564.3,18864
564.4,19003
564.5,19143
564.6,19283
564.7,19425
564.8,19572
564.9,19722
565.0,19867
565.1,20013
565.2,20160
565.3,20309
565.4,20463
565.5,20621
565.6,20773
565.7,20927
565.8,21083
565.9,21250
566.0,21419
566.1,21584
566.2,21744
566.3,21906
566.4,22068
566.5,22232
566.6,22402
566.7,22573
566.8,22738
566.9,22904
567.0,23071
567.1,23238
567.2,23412
567.3,23587
567.4,23756
567.5,23926
567.6,24097
567.7,24269
567.8,24448
567.9,24629
568.0,24806
568.1,24983
568.2,25162
568.3,25342
568.4,25531
568.5,25720
568.6,25905
568.7,26091
568.8,26278
568.9,26465
569.0,26659
569.1,26854
569.2,27043
569.3,27232
569.4,27421
569.5,27609
569.6,27803
569.7,27997
569.8,28184
569.9,28371
570.0,28557
570.1,28743
570.2,28936
570.3,29137
570.4,29337
570.5,29524
570.6,29712
570.7,29900
570.8,30089
570.9,30283
571.0,30479
571.1,30668
571.2,30856
571.3,31044
571.4,31238
571.5,31429
571.6,31614
571.7,31799
571.8,31983
571.9,32168
572.0,32352
572.1,32541
572.2,32733
572.3,32917
572.4,33100
572.5,33284
572.6,33477
572.7,33667
572.8,33851
572.9,34035
573.0,34218
573.1,34401
573.2,34584
573.3,34773
573.4,34964
573.5,35146
573.6,35328
573.7,35511
573.8,35693
573.9,35882
574.0,36074
574.1,36258
574.2,36444
574.3,36631
574.4,36829
574.5,37027
574.6,37220
574.7,37418
574.8,37633
574.9,37833
575.0,38036
575.1,38247
575.2,38460
575.3,38664
575.4,38869
575.5,39075
575.6,39280
575.7,39495
575.8,39710
575.9,39916
576.0,40122
576.1,40330
576.2,40538
576.3,40756
576.4,40976
576.5,41188
576.6,41400
576.7,41613
576.8,41826
576.9,42049
577.0,42272
577.1,42482
577.2,42679
577.3,42889
577.4,43100
577.5,43310
577.6,43520
577.7,43729
577.8,43921
577.9,44136
578.0,44344
578.1,44538
578.2,44744
578.3,44934
578.4,45147
578.5,45361
578.6,45560
578.7,45748
578.8,45952
578.9,46157
579.0,46361
579.1,46562
579.2,46765
579.3,46983
579.4,47181
579.5,47377
579.6,47585
579.7,47798
579.8,48001
579.9,48192
580.0,48380
580.1,48568
580.2,48767
580.3,48975
580.4,49177
580.5,49366
580.6,49556
580.7,49766
580.8,49962
580.9,50175
581.0,50384
581.1,50588
581.2,50801
581.3,51001
581.4,51202
581.5,51419
581.6,51644
581.7,51859
581.8,52061
581.9,52265
582.0,52487
582.1,52692
582.2,52897
582.3,53120
582.4,53350
582.5,53571
582.6,53778
582.7,53988
582.8,54198
582.9,54423
583.0,54662
583.1,54895
583.2,55116
583.3,55353
583.4,55574
583.5,55797
583.6,56044
583.7,56298
583.8,56540
583.9,56771
584.0,57002
584.1,57234
584.2,57484
584.3,57723
584.4,57973
584.5,58230
584.6,58467
584.7,58722
584.8,58956
584.9,59189
585.0,59442
585.1,59703
585.2,59949
585.3,60178
585.4,60406
585.5,60650
585.6,60878
585.7,61123
585.8,61366
585.9,61592
586.0,61832
586.1,62054
586.2,62275
586.3,62497
586.4,62750
586.5,63010
586.6,63233
586.7,63456
586.8,63678
586.9,63916
587.0,64142
587.1,64381
587.2,64634
587.3,64869
587.4,65087
587.5,65305
587.6,65523
587.7,65752
587.8,66000
587.9,66244
588.0,66460
588.1,66675
588.2,66907
588.3,67124
588.4,67361
588.5,67598
588.6,67813
588.7,68041
588.8,68253
588.9,68466
589.0,68680
589.1,68928
589.2,69184
589.3,69401
589.4,69620
589.5,69859
589.6,70082
589.7,70304
589.8,70549
589.9,70811
590.0,71053
590.1,71280
590.2,71508
590.3,71738
590.4,72011
590.5,72278
590.6,72510
590.7,72742
590.8,72973
590.9,73221
591.0,73454
591.1,73710
591.2,73973
591.3,74214
591.4,74441
591.5,74669
591.6,74899
591.7,75144
591.8,75414
591.9,75676
592.0,75913
592.1,76151
592.2,76410
592.3,76652
592.4,76923
592.5,77184
592.6,77426
592.7,77678
592.8,77913
592.9,78146
593.0,78394
593.1,78665
593.2,78918
593.3,79145
593.4,79372
593.5,79615
593.6,79835
593.7,80053
593.8,80297
593.9,80548
594.0,80771
594.1,80979
594.2,81185
594.3,81389
594.4,81604
594.5,81843
594.6,82073
594.7,82270
594.8,82465
594.9,82674
595.0,82863
595.1,83083
595.2,83298
595.3,83486
595.4,83663
595.5,83836
595.6,84007
595.7,84190
595.8,84363
595.9,84558
596.0,84764
596.1,84935
596.2,85120
596.3,85288
596.4,85455
596.5,85653
596.6,85855
596.7,86028
596.8,86189
596.9,86348
597.0,86517
597.1,86673
597.2,86857
597.3,87040
597.4,87190
597.5,87348
597.6,87491
597.7,87632
597.8,87772
597.9,87948
598.0,88130
598.1,88268
598.2,88406
598.3,88544
598.4,88691
598.5,88833
598.6,89000
598.7,89179
598.8,89321
598.9,89474
599.0,89613
599.1,89754
599.2,89901
599.3,90077
599.4,90257
599.5,90397
599.6,90536
599.7,90686
599.8,90827
599.9,91001
600.0,91174
600.1,91315
600.2,91464
600.3,91603
600.4,91741
600.5,91879
600.6,92057
600.7,92243
600.8,92384
600.9,92525
601.0,92678
601.1,92821
601.2,92962
601.3,93134
601.4,93320
601.5,93472
601.6,93614
601.7,93756
601.8,93899
601.9,94091
602.0,94276
602.1,94423
602.2,94569
602.3,94717
602.4,94877
602.5,95027
602.6,95210
602.7,95391
602.8,95536
602.9,95686
603.0,95821
603.1,95955
603.2,96094
603.3,96266
603.4,96430
603.5,96556
603.6,96680
603.7,96814
603.8,96937
603.9,97101
604.0,97252
604.1,97373
604.2,97498
604.3,97614
604.4,97730
604.5,97847
604.6,98011
604.7,98166
604.8,98282
604.9,98399
605.0,98526
605.1,98642
605.2,98755
605.3,98905
605.4,99056
605.5,99167
605.6,99268
605.7,99367
605.8,99462
605.9,99560
606.0,99691
606.1,99816
606.2,99902
606.3,99987
606.4,100078
606.5,100161
606.6,100287
606.7,100397
606.8,100475
606.9,100555
607.0,100628
607.1,100700
607.2,100776
607.3,100848
607.4,100949
607.5,101064
607.6,101134
607.7,101212
607.8,101285
607.9,101359
608.0,101471
608.1,101586
608.2,101665
608.3,101738
608.4,101812
608.5,101884
608.6,101962
608.7,102077
608.8,102189
608.9,102265
609.0,102346
609.1,102423
609.2,102501
609.3,102578
609.4,102696
609.5,102823
609.6,102902
609.7,102983
609.8,103063
609.9,103150
610.0,103234
610.1,103350
610.2,103480
610.3,103567
610.4,103663
610.5,103752
610.6,103841
610.7,103969
610.8,104102
610.9,104197
611.0,104286
611.1,104375
611.2,104469
611.3,104555
611.4,104678
611.5,104800
611.6,104884
611.7,104975
611.8,105058
611.9,105141
612.0,105225
612.1,105348
612.2,105480
612.3,105564
612.4,105648
612.5,105731
612.6,105817
612.7,105897
612.8,106007
612.9,106130
613.0,106206
613.1,106273
613.2,106337
613.3,106397
613.4,106500
613.5,106591
613.6,106641
613.7,106689
613.8,106733
613.9,106776
614.0,106814
614.1,106890
614.2,106964
614.3,106998
614.4,107033
614.5,107064
614.6,107095
614.7,107126
614.8,107195
614.9,107271
615.0,107303
615.1,107334
615.2,107366
615.3,107395
615.4,107469
615.5,107529
615.6,107554
615.7,107579
615.8,107599
615.9,107617
616.0,107634
616.1,107695
616.2,107747
616.3,107761
616.4,107774
616.5,107787
616.6,107802
616.7,107815
616.8,107868
616.9,107921
617.0,107935
617.1,107948
617.2,107961
617.3,107975
617.4,107992
617.5,108048
617.6,108105
617.7,108123
617.8,108141
617.9,108162
618.0,108183
618.1,108250
618.2,108305
618.3,108327
618.4,108349
618.5,108368
618.6,108384
618.7,108400
618.8,108416
618.9,108462
619.0,108520
619.1,108529
619.2,108535
619.3,108538
619.4,108538
619.5,108577
619.6,108614
619.7,108608
619.8,108601
619.9,108592
620.0,108582
620.1,108571
620.2,108601
620.3,108632
620.4,108624
620.5,108616
620.6,108608
620.7,108601
620.8,108593
620.9,108620
621.0,108653
621.1,108643
621.2,108631
621.3,108617
621.4,108600
621.5,108582
621.6,108595
621.7,108620
621.8,108597
621.9,108571
622.0,108545
622.1,108516
622.2,108523
622.3,108528
622.4,108490
622.5,108453
622.6,108415
622.7,108377
622.8,108337
622.9,108338
623.0,108341
623.1,108305
623.2,108269
623.3,108238
623.4,108209
623.5,108181
623.6,108188
623.7,108201
623.8,108173
623.9,108146
624.0,108119
624.1,108090
624.2,108062
624.3,108067
624.4,108085
624.5,108056
624.6,108025
624.7,107996
624.8,107965
624.9,107972
625.0,107970
625.1,107934
625.2,107895
625.3,107853
625.4,107807
625.5,107764
625.6,107760
625.7,107756
625.8,107713
625.9,107667
626.0,107625
626.1,107584
626.2,107544
626.3,107536
626.4,107534
626.5,107492
626.6,107450
626.7,107406
626.8,107359
626.9,107359
627.0,107348
627.1,107303
627.2,107255
627.3,107211
627.4,107166
627.5,107121
627.6,107113
627.7,107097
627.8,107048
627.9,106998
628.0,106946
628.1,106890
628.2,106837
628.3,106822
628.4,106807
628.5,106754
628.6,106697
628.7,106645
628.8,106593
628.9,106539
629.0,106523
629.1,106509
629.2,106458
629.3,106408
629.4,106354
629.5,106305
629.6,106299
629.7,106281
629.8,106232
629.9,106180
630.0,106131
630.1,106085
630.2,106038
630.3,105988
630.4,105969
630.5,105965
630.6,105921
630.7,105879
630.8,105836
630.9,105797
631.0,105798
631.1,105800
631.2,105768
631.3,105739
631.4,105713
631.5,105688
631.6,105661
631.7,105673
631.8,105686
631.9,105665
632.0,105646
632.1,105627
632.2,105612
632.3,105598
632.4,105617
632.5,105651
632.6,105644
632.7,105641
632.8,105640
632.9,105641
633.0,105643
633.1,105676
633.2,105721
633.3,105726
633.4,105733
633.5,105741
633.6,105748
633.7,105791
633.8,105833
633.9,105838
634.0,105840
634.1,105839
634.2,105836
634.3,105830
634.4,105856
634.5,105880
634.6,105867
634.7,105851
634.8,105833
634.9,105815
635.0,105797
635.1,105810
635.2,105827
635.3,105805
635.4,105780
635.5,105751
635.6,105717
635.7,105680
635.8,105668
635.9,105663
636.0,105610
636.1,105545
636.2,105480
636.3,105410
636.4,105369
636.5,105321
636.6,105230
636.7,105140
636.8,105047
636.9,104940
637.0,104837
637.1,104768
637.2,104696
637.3,104585
637.4,104465
637.5,104353
637.6,104238
637.7,104121
637.8,104028
637.9,103939
638.0,103818
638.1,103695
638.2,103571
638.3,103436
638.4,103345
638.5,103246
638.6,103117
638.7,102988
638.8,102850
638.9,102722
639.0,102594
639.1,102495
639.2,102391
639.3,102263
639.4,102136
639.5,102011
639.6,101876
639.7,101750
639.8,101660
639.9,101573
640.0,101452
640.1,101329
640.2,101218
640.3,101111
640.4,101044
640.5,100965
640.6,100860
640.7,100763
640.8,100669
640.9,100572
641.0,100485
641.1,100441
641.2,100389
641.3,100311
641.4,100234
641.5,100165
641.6,100099
641.7,100035
641.8,99970
641.9,99932
642.0,99908
642.1,99845
642.2,99783
642.3,99714
642.4,99647
642.5,99614
642.6,99580
642.7,99513
642.8,99442
642.9,99377
643.0,99311
643.1,99242
643.2,99207
643.3,99175
643.4,99110
643.5,99045
643.6,98974
643.7,98909
643.8,98845
643.9,98810
644.0,98785
644.1,98722
644.2,98665
644.3,98609
644.4,98553
644.5,98495
644.6,98464
644.7,98444
644.8,98386
644.9,98320
645.0,98255
645.1,98187
645.2,98149
645.3,98107
645.4,98030
645.5,97957
645.6,97885
645.7,97812
645.8,97737
645.9,97697
646.0,97663
646.1,97599
646.2,97539
646.3,97476
646.4,97420
646.5,97367
646.6,97342
646.7,97328
646.8,97277
646.9,97230
647.0,97184
647.1,97136
647.2,97091
647.3,97072
647.4,97063
647.5,97016
647.6,96963
647.7,96913
647.8,96862
647.9,96841
648.0,96818
648.1,96761
648.2,96706
648.3,96650
648.4,96593
648.5,96532
648.6,96504
648.7,96477
648.8,96417
648.9,96351
649.0,96290
649.1,96226
649.2,96160
649.3,96118
649.4,96080
649.5,96009
649.6,95937
649.7,95863
649.8,95784
649.9,95744
650.0,95695
650.1,95620
650.2,95543
650.3,95459
650.4,95381
650.5,95304
650.6,95256
650.7,95203
650.8,95114
650.9,95028
651.0,94939
651.1,94840
651.2,94746
651.3,94683
651.4,94619
651.5,94521
651.6,94416
651.7,94320
651.8,94224
651.9,94165
652.0,94091
652.1,93991
652.2,93895
652.3,93800
652.4,93705
652.5,93604
652.6,93544
652.7,93476
652.8,93380
652.9,93281
653.0,93189
653.1,93101
653.2,93014
653.3,92922
653.4,92857
653.5,92806
653.6,92719
653.7,92633
653.8,92541
653.9,92455
654.0,92401
654.1,92347
654.2,92261
654.3,92169
654.4,92086
654.5,92005
654.6,91961
654.7,91903
654.8,91817
654.9,91736
655.0,91656
655.1,91570
655.2,91492
655.3,91415
655.4,91365
655.5,91326
655.6,91248
655.7,91179
655.8,91112
655.9,91046
656.0,90978
656.1,90937
656.2,90910
656.3,90845
656.4,90781
656.5,90712
656.6,90645
656.7,90611
656.8,90575
656.9,90505
657.0,90441
657.1,90377
657.2,90315
657.3,90250
657.4,90219
657.5,90191
657.6,90131
657.7,90071
657.8,90006
657.9,89945
658.0,89883
658.1,89849
658.2,89825
658.3,89761
658.4,89700
658.5,89638
658.6,89575
658.7,89508
658.8,89468
658.9,89440
659.0,89374
659.1,89302
659.2,89234
659.3,89164
659.4,89127
659.5,89087
659.6,89013
659.7,88945
659.8,88876
659.9,88808
660.0,88734
660.1,88695
660.2,88658
660.3,88588
660.4,88518
660.5,88440
660.6,88366
660.7,88293
660.8,88246
660.9,88206
661.0,88134
661.1,88064
661.2,87996
661.3,87923
661.4,87893
661.5,87856
661.6,87793
661.7,87730
661.8,87662
661.9,87602
662.0,87541
662.1,87514
662.2,87484
662.3,87420
662.4,87360
662.5,87302
662.6,87244
662.7,87184
662.8,87162
662.9,87144
663.0,87092
663.1,87039
663.2,86992
663.3,86948
663.4,86945
663.5,86930
663.6,86887
663.7,86846
663.8,86805
663.9,86764
664.0,86720
664.1,86717
664.2,86702
664.3,86655
664.4,86606
664.5,86550
664.6,86496
664.7,86440
664.8,86378
664.9,86342
665.0,86316
665.1,86247
665.2,86174
665.3,86092
665.4,86011
665.5,85964
665.6,85914
665.7,85826
665.8,85729
665.9,85637
666.0,85543
666.1,85488
666.2,85415
666.3,85308
666.4,85205
666.5,85100
666.6,84993
666.7,84876
666.8,84762
666.9,84680
667.0,84607
667.1,84487
667.2,84375
667.3,84263
667.4,84150
667.5,84032
667.6,83944
667.7,83873
667.8,83760
667.9,83647
668.0,83525
668.1,83409
668.2,83331
668.3,83255
668.4,83144
668.5,83029
668.6,82924
668.7,82822
668.8,82714
668.9,82648
669.0,82589
669.1,82497
669.2,82408
669.3,82312
669.4,82224
669.5,82139
669.6,82085
669.7,82043
669.8,81958
669.9,81881
670.0,81805
670.1,81730
670.2,81651
670.3,81604
670.4,81573
670.5,81499
670.6,81425
670.7,81344
670.8,81267
670.9,81226
671.0,81181
671.1,81098
671.2,81020
671.3,80940
671.4,80860
671.5,80773
671.6,80724
671.7,80675
671.8,80588
671.9,80498
672.0,80397
672.1,80301
672.2,80204
672.3,80135
672.4,80072
672.5,79959
672.6,79851
672.7,79742
672.8,79623
672.9,79549
673.0,79464
673.1,79346
673.2,79223
673.3,79085
673.4,78956
673.5,78825
673.6,78727
673.7,78623
673.8,78476
673.9,78336
674.0,78195
674.1,78054
674.2,77903
674.3,77791
674.4,77684
674.5,77541
674.6,77399
674.7,77243
674.8,77101
674.9,77002
675.0,76886
675.1,76740
675.2,76603
675.3,76469
675.4,76336
675.5,76196
675.6,76104
675.7,76004
675.8,75877
675.9,75750
676.0,75614
676.1,75490
676.2,75366
676.3,75280
676.4,75189
676.5,75061
676.6,74942
676.7,74825
676.8,74699
676.9,74580
677.0,74499
677.1,74419
677.2,74301
677.3,74176
677.4,74059
677.5,73943
677.6,73869
677.7,73779
677.8,73658
677.9,73544
678.0,73432
678.1,73320
678.2,73201
678.3,73088
678.4,73009
678.5,72941
678.6,72831
678.7,72711
678.8,72600
678.9,72489
679.0,72373
679.1,72288
679.2,72220
679.3,72111
679.4,72000
679.5,71880
679.6,71767
679.7,71690
679.8,71611
679.9,71493
680.0,71364
680.1,71242
680.2,71117
680.3,70991
680.4,70891
680.5,70796
680.6,70667
680.7,70538
680.8,70397
680.9,70267
681.0,70139
681.1,70040
681.2,69951
681.3,69815
681.4,69689
681.5,69563
681.6,69439
681.7,69310
681.8,69214
681.9,69137
682.0,69021
682.1,68908
682.2,68789
682.3,68678
682.4,68606
682.5,68535
682.6,68427
682.7,68314
682.8,68210
682.9,68108
683.0,68000
683.1,67933
683.2,67871
683.3,67776
683.4,67684
683.5,67590
683.6,67508
683.7,67429
683.8,67385
683.9,67353
684.0,67282
684.1,67219
684.2,67160
684.3,67103
684.4,67084
684.5,67061
684.6,67009
684.7,66958
684.8,66902
684.9,66851
685.0,66799
685.1,66782
685.2,66761
685.3,66701
685.4,66641
685.5,66578
685.6,66513
685.7,66442
685.8,66405
685.9,66370
686.0,66298
686.1,66225
686.2,66145
686.3,66071
686.4,66039
686.5,65994
686.6,65918
686.7,65837
686.8,65762
686.9,65686
687.0,65603
687.1,65563
687.2,65513
687.3,65432
687.4,65349
687.5,65258
687.6,65173
687.7,65088
687.8,65037
687.9,64980
688.0,64885
688.1,64794
688.2,64701
688.3,64605
688.4,64500
688.5,64431
688.6,64363
688.7,64255
688.8,64138
688.9,64029
689.0,63918
689.1,63847
689.2,63759
689.3,63642
689.4,63533
689.5,63424
689.6,63318
689.7,63208
689.8,63104
689.9,63034
690.0,62978
690.1,62884
690.2,62789
690.3,62705
690.4,62624
690.5,62580
690.6,62536
690.7,62459
690.8,62388
690.9,62320
691.0,62248
691.1,62182
691.2,62151
691.3,62121
691.4,62057
691.5,61989
691.6,61927
691.7,61867
691.8,61808
691.9,61780
692.0,61760
692.1,61708
692.2,61659
692.3,61614
692.4,61566
692.5,61522
692.6,61510
692.7,61509
692.8,61467
692.9,61427
693.0,61386
693.1,61345
693.2,61301
693.3,61285
693.4,61280
693.5,61235
693.6,61188
693.7,61134
693.8,61081
693.9,61062
694.0,61041
694.1,60984
694.2,60921
694.3,60860
694.4,60798
694.5,60734
694.6,60697
694.7,60665
694.8,60600
694.9,60534
695.0,60461
695.1,60392
695.2,60323
695.3,60281
695.4,60247
695.5,60169
695.6,60095
695.7,60019
695.8,59940
695.9,59891
696.0,59834
696.1,59749
696.2,59662
696.3,59575
696.4,59479
696.5,59386
696.6,59324
696.7,59255
696.8,59155
696.9,59050
697.0,58953
697.1,58845
697.2,58745
697.3,58640
697.4,58566
697.5,58492
697.6,58391
697.7,58287
697.8,58192
697.9,58089
698.0,57994
698.1,57895
698.2,57792
698.3,57719
698.4,57658
698.5,57554
698.6,57457
698.7,57350
698.8,57252
698.9,57149
699.0,57043
699.1,56970
699.2,56910
699.3,56812
699.4,56723
699.5,56628
699.6,56540
699.7,56447
699.8,56388
699.9,56330
700.0,56236
700.1,56144
700.2,56058
700.3,55963
700.4,55874
700.5,55779
700.6,55718
700.7,55657
700.8,55561
700.9,55467
701.0,55378
701.1,55279
701.2,55189
701.3,55093
701.4,55030
701.5,54968
701.6,54869
701.7,54772
701.8,54682
701.9,54584
702.0,54494
702.1,54399
702.2,54337
702.3,54274
702.4,54177
702.5,54082
702.6,53993
702.7,53895
702.8,53805
702.9,53711
703.0,53650
703.1,53591
703.2,53499
703.3,53410
703.4,53328
703.5,53238
703.6,53156
703.7,53071
703.8,53017
703.9,52963
704.0,52875
704.1,52786
704.2,52702
704.3,52609
704.4,52523
704.5,52433
704.6,52373
704.7,52314
704.8,52222
704.9,52132
705.0,52049
705.1,51961
705.2,51880
705.3,51797
705.4,51745
705.5,51694
705.6,51613
705.7,51538
705.8,51458
705.9,51379
706.0,51307
706.1,51234
706.2,51192
706.3,51150
706.4,51080
706.5,51015
706.6,50945
706.7,50876
706.8,50814
706.9,50750
707.0,50716
707.1,50682
707.2,50619
707.3,50561
707.4,50500
707.5,50439
707.6,50383
707.7,50324
707.8,50296
707.9,50267
708.0,50209
708.1,50154
708.2,50094
708.3,50035
708.4,49980
708.5,49923
708.6,49896
708.7,49869
708.8,49814
708.9,49762
709.0,49708
709.1,49656
709.2,49609
709.3,49559
709.4,49537
709.5,49515
709.6,49464
709.7,49417
709.8,49368
709.9,49318
710.0,49272
710.1,49223
710.2,49201
710.3,49179
710.4,49129
710.5,49081
710.6,49028
710.7,48974
710.8,48924
710.9,48871
711.0,48846
711.1,48821
711.2,48768
711.3,48717
711.4,48663
711.5,48610
711.6,48562
711.7,48511
711.8,48488
711.9,48465
712.0,48413
712.1,48365
712.2,48315
712.3,48270
712.4,48222
712.5,48173
712.6,48151
712.7,48129
712.8,48080
712.9,48033
713.0,47980
713.1,47931
713.2,47877
713.3,47820
713.4,47791
713.5,47763
713.6,47709
713.7,47659
713.8,47605
713.9,47557
714.0,47507
714.1,47458
714.2,47437
714.3,47417
714.4,47370
714.5,47327
714.6,47280
714.7,47237
714.8,47192
714.9,47145
715.0,47126
715.1,47107
715.2,47060
715.3,47017
715.4,46968
715.5,46922
715.6,46870
715.7,46816
715.8,46787
715.9,46757
716.0,46700
716.1,46645
716.2,46583
716.3,46526
716.4,46464
716.5,46399
716.6,46362
716.7,46323
716.8,46256
716.9,46190
717.0,46115
717.1,46044
717.2,45968
717.3,45889
717.4,45839
717.5,45788
717.6,45711
717.7,45640
717.8,45562
717.9,45491
718.0,45415
718.1,45369
718.2,45312
718.3,45229
718.4,45144
718.5,45061
718.6,44968
718.7,44879
718.8,44782
718.9,44716
719.0,44639
719.1,44536
719.2,44433
719.3,44335
719.4,44227
719.5,44128
719.6,44021
719.7,43919
719.8,43836
719.9,43755
720.0,43652
720.1,43557
720.2,43457
720.3,43369
720.4,43277
720.5,43191
720.6,43124
720.7,43057
720.8,42967
720.9,42880
721.0,42785
721.1,42696
721.2,42599
721.3,42505
721.4,42429
721.5,42354
721.6,42257
721.7,42166
721.8,42070
721.9,41985
722.0,41896
722.1,41837
722.2,41771
722.3,41684
722.4,41600
722.5,41522
722.6,41440
722.7,41368
722.8,41291
722.9,41245
723.0,41192
723.1,41120
723.2,41052
723.3,40989
723.4,40924
723.5,40865
723.6,40803
723.7,40745
723.8,40706
723.9,40670
724.0,40616
724.1,40568
724.2,40518
724.3,40477
724.4,40435
724.5,40397
724.6,40380
724.7,40368
724.8,40335
724.9,40300
725.0,40265
725.1,40233
725.2,40197
725.3,40162
725.4,40145
725.5,40134
725.6,40102
725.7,40068
725.8,40037
725.9,40011
726.0,39985
726.1,39986
726.2,39982
726.3,39962
726.4,39945
726.5,39927
726.6,39909
726.7,39893
726.8,39874
726.9,39879
727.0,39876
727.1,39854
727.2,39831
727.3,39803
727.4,39772
727.5,39742
727.6,39707
727.7,39673
727.8,39655
727.9,39639
728.0,39602
728.1,39561
728.2,39523
728.3,39480
728.4,39438
728.5,39398
728.6,39374
728.7,39353
728.8,39310
728.9,39262
729.0,39215
729.1,39161
729.2,39107
729.3,39050
729.4,39005
729.5,38964
729.6,38900
729.7,38831
729.8,38766
729.9,38694
730.0,38625
730.1,38576
730.2,38524
730.3,38454
730.4,38381
730.5,38309
730.6,38243
730.7,38170
730.8,38101
730.9,38050
731.0,37996
731.1,37924
731.2,37848
731.3,37776
731.4,37697
731.5,37617
731.6,37543
731.7,37467
731.8,37409
731.9,37361
732.0,37288
732.1,37222
732.2,37153
732.3,37091
732.4,37028
732.5,36966
732.6,36924
732.7,36890
732.8,36833
732.9,36782
733.0,36727
733.1,36676
733.2,36625
733.3,36572
733.4,36538
733.5,36510
733.6,36459
733.7,36412
733.8,36361
733.9,36316
734.0,36269
734.1,36243
734.2,36219
734.3,36175
734.4,36133
734.5,36096
734.6,36058
734.7,36024
734.8,35989
734.9,35974
735.0,35958
735.1,35922
735.2,35887
735.3,35847
735.4,35809
735.5,35772
735.6,35734
735.7,35714
735.8,35695
735.9,35656
736.0,35620
736.1,35583
736.2,35551
736.3,35517
736.4,35483
736.5,35469
736.6,35454
736.7,35419
736.8,35386
736.9,35349
737.0,35313
737.1,35272
737.2,35229
737.3,35199
737.4,35167
737.5,35114
737.6,35062
737.7,35004
737.8,34949
737.9,34887
738.0,34826
738.1,34779
738.2,34733
738.3,34672
738.4,34606
738.5,34542
738.6,34485
738.7,34424
738.8,34367
738.9,34324
739.0,34285
739.1,34228
739.2,34167
739.3,34106
739.4,34049
739.5,33985
739.6,33942
739.7,33890
739.8,33820
739.9,33752
740.0,33688
740.1,33620
740.2,33558
740.3,33492
740.4,33448
740.5,33398
740.6,33333
740.7,33272
740.8,33215
740.9,33153
741.0,33097
741.1,33038
741.2,32980
741.3,32941
741.4,32904
741.5,32850
741.6,32798
741.7,32743
741.8,32692
741.9,32637
742.0,32581
742.1,32542
742.2,32503
742.3,32445
742.4,32390
742.5,32331
742.6,32278
742.7,32222
742.8,32165
742.9,32129
743.0,32093
743.1,32042
743.2,31993
743.3,31939
743.4,31886
743.5,31836
743.6,31784
743.7,31749
743.8,31715
743.9,31665
744.0,31618
744.1,31567
744.2,31520
744.3,31479
744.4,31437
744.5,31413
744.6,31390
744.7,31349
744.8,31309
744.9,31271
745.0,31229
745.1,31190
745.2,31149
745.3,31122
745.4,31094
745.5,31049
745.6,31005
745.7,30965
745.8,30920
745.9,30879
746.0,30835
746.1,30807
746.2,30779
746.3,30734
746.4,30691
746.5,30651
746.6,30608
746.7,30568
746.8,30526
746.9,30500
747.0,30474
747.1,30435
747.2,30394
747.3,30354
747.4,30310
747.5,30268
747.6,30222
747.7,30172
747.8,30134
747.9,30101
748.0,30046
748.1,29994
748.2,29934
748.3,29872
748.4,29814
748.5,29754
748.6,29705
748.7,29663
748.8,29601
748.9,29544
749.0,29481
749.1,29419
749.2,29362
749.3,29303
749.4,29256
749.5,29215
749.6,29153
749.7,29091
749.8,29033
749.9,28970
750.0,28910
750.1,28863
750.2,28814
750.3,28752
750.4,28684
750.5,28617
750.6,28554
750.7,28485
750.8,28416
750.9,28366
751.0,28310
751.1,28240
751.2,28171
751.3,28107
751.4,28039
751.5,27973
751.6,27914
751.7,27854
751.8,27793
751.9,27745
752.0,27703
752.1,27650
752.2,27595
752.3,27542
752.4,27494
752.5,27445
752.6,27395
752.7,27362
752.8,27331
752.9,27285
753.0,27241
753.1,27199
753.2,27154
753.3,27107
753.4,27063
753.5,27016
753.6,26979
753.7,26945
753.8,26897
753.9,26847
754.0,26799
754.1,26756
754.2,26712
754.3,26669
754.4,26642
754.5,26618
754.6,26585
754.7,26552
754.8,26522
754.9,26496
755.0,26468
755.1,26443
755.2,26422
755.3,26414
755.4,26410
755.5,26395
755.6,26382
755.7,26371
755.8,26363
755.9,26358
756.0,26355
756.1,26370
756.2,26385
756.3,26390
756.4,26400
756.5,26415
756.6,26431
756.7,26452
756.8,26474
756.9,26512
757.0,26547
757.1,26573
757.2,26601
757.3,26629
757.4,26654
757.5,26679
757.6,26704
757.7,26728
757.8,26753
757.9,26790
758.0,26829
758.1,26854
758.2,26880
758.3,26907
758.4,26932
758.5,26960
758.6,26987
758.7,27023
758.8,27058
758.9,27080
759.0,27100
759.1,27115
759.2,27128
759.3,27136
759.4,27139
759.5,27138
759.6,27146
759.7,27154
759.8,27145
759.9,27132
760.0,27115
760.1,27096
760.2,27078
760.3,27057
760.4,27047
760.5,27035
760.6,27009
760.7,26978
760.8,26945
760.9,26913
761.0,26874
761.1,26831
761.2,26786
761.3,26747
761.4,26704
761.5,26646
761.6,26586
761.7,26516
761.8,26441
761.9,26368
762.0,26288
762.1,26218
762.2,26143
762.3,26058
762.4,25974
762.5,25884
762.6,25795
762.7,25715
762.8,25631
762.9,25546
763.0,25475
763.1,25403
763.2,25315
763.3,25228
763.4,25148
763.5,25060
763.6,24971
763.7,24889
763.8,24804
763.9,24729
764.0,24661
764.1,24586
764.2,24510
764.3,24442
764.4,24370
764.5,24301
764.6,24250
764.7,24196
764.8,24131
764.9,24069
765.0,24012
765.1,23955
765.2,23901
765.3,23854
765.4,23808
765.5,23764
765.6,23734
765.7,23711
765.8,23678
765.9,23649
766.0,23620
766.1,23592
766.2,23569
766.3,23548
766.4,23539
766.5,23535
766.6,23523
766.7,23512
766.8,23504
766.9,23499
767.0,23496
767.1,23494
767.2,23502
767.3,23509
767.4,23505
767.5,23502
767.6,23498
767.7,23496
767.8,23496
767.9,23499
768.0,23505
768.1,23522
768.2,23548
768.3,23566
768.4,23588
768.5,23610
768.6,23637
768.7,23663
768.8,23688
768.9,23723
769.0,23757
769.1,23776
769.2,23793
769.3,23808
769.4,23820
769.5,23829
769.6,23835
769.7,23849
769.8,23860
769.9,23859
770.0,23854
770.1,23848
770.2,23837
770.3,23825
770.4,23808
770.5,23788
770.6,23778
770.7,23771
770.8,23749
770.9,23725
771.0,23703
771.1,23677
771.2,23650
771.3,23623
771.4,23604
771.5,23585
771.6,23552
771.7,23519
771.8,23481
771.9,23445
772.0,23404
772.1,23361
772.2,23329
772.3,23297
772.4,23251
772.5,23203
772.6,23155
772.7,23109
772.8,23056
772.9,23001
773.0,22942
773.1,22894
773.2,22844
773.3,22779
773.4,22713
773.5,22648
773.6,22582
773.7,22524
773.8,22465
773.9,22410
774.0,22357
774.1,22319
774.2,22288
774.3,22246
774.4,22205
774.5,22165
774.6,22125
774.7,22088
774.8,22048
774.9,22017
775.0,21984
775.1,21944
775.2,21904
775.3,21860
775.4,21815
775.5,21772
775.6,21730
775.7,21691
775.8,21651
775.9,21619
776.0,21588
776.1,21548
776.2,21512
776.3,21482
776.4,21453
776.5,21428
776.6,21405
776.7,21384
776.8,21374
776.9,21366
777.0,21348
777.1,21330
777.2,21309
777.3,21288
777.4,21261
777.5,21230
777.6,21196
777.7,21172
777.8,21146
777.9,21108
778.0,21069
778.1,21029
778.2,20990
778.3,20954
778.4,20914
778.5,20872
778.6,20840
778.7,20809
778.8,20769
778.9,20726
779.0,20684
779.1,20642
779.2,20603
779.3,20566
779.4,20529
779.5,20492
779.6,20462
779.7,20435
779.8,20397
779.9,20355
780.0,20313
780.1,20269
780.2,20222
780.3,20178
780.4,20142
780.5,20103
780.6,20056
780.7,20011
780.8,19969
780.9,19924
781.0,19878
781.1,19830
781.2,19782
781.3,19735
781.4,19696
781.5,19656
781.6,19605
781.7,19554
781.8,19504
781.9,19459
782.0,19412
782.1,19367
782.2,19323
782.3,19290
782.4,19258
782.5,19213
782.6,19169
782.7,19126
782.8,19082
782.9,19042
783.0,19000
783.1,18956
783.2,18914
783.3,18882
783.4,18854
783.5,18815
783.6,18776
783.7,18737
783.8,18697
783.9,18660
784.0,18621
784.1,18590
784.2,18557
784.3,18519
784.4,18484
784.5,18448
784.6,18413
784.7,18379
784.8,18347
784.9,18318
785.0,18289
785.1,18266
785.2,18246
785.3,18217
785.4,18188
785.5,18155
785.6,18123
785.7,18091
785.8,18059
785.9,18041
786.0,18021
786.1,17995
786.2,17969
786.3,17945
786.4,17923
786.5,17900
786.6,17878
786.7,17857
786.8,17836
786.9,17824
787.0,17813
787.1,17793
787.2,17774
787.3,17754
787.4,17736
787.5,17720
787.6,17703
787.7,17686
787.8,17669
787.9,17661
788.0,17655
788.1,17639
788.2,17623
788.3,17607
788.4,17591
788.5,17576
788.6,17562
788.7,17548
788.8,17544
788.9,17543
789.0,17534
789.1,17524
789.2,17515
789.3,17506
789.4,17496
789.5,17487
789.6,17486
789.7,17482
789.8,17470
789.9,17457
790.0,17444
790.1,17431
790.2,17418
790.3,17407
790.4,17397
790.5,17387
790.6,17386
790.7,17387
790.8,17379
790.9,17371
791.0,17363
791.1,17353
791.2,17343
791.3,17331
791.4,17318
791.5,17313
791.6,17305
791.7,17286
791.8,17264
791.9,17240
792.0,17215
792.1,17186
792.2,17154
792.3,17119
792.4,17092
792.5,17062
792.6,17024
792.7,16984
792.8,16944
792.9,16904
793.0,16863
793.1,16826
793.2,16786
793.3,16745
793.4,16712
793.5,16682
793.6,16646
793.7,16607
793.8,16568
793.9,16531
794.0,16493
794.1,16458
794.2,16422
794.3,16394
794.4,16368
794.5,16334
794.6,16301
794.7,16265
794.8,16230
794.9,16194
795.0,16160
795.1,16127
795.2,16095
795.3,16071
795.4,16049
795.5,16020
795.6,15992
795.7,15965
795.8,15938
795.9,15914
796.0,15891
796.1,15870
796.2,15852
796.3,15844
796.4,15841
796.5,15831
796.6,15823
796.7,15815
796.8,15806
796.9,15795
797.0,15781
797.1,15767
797.2,15749
797.3,15735
797.4,15721
797.5,15696
797.6,15671
797.7,15648
797.8,15626
797.9,15606
798.0,15587
798.1,15570
798.2,15553
798.3,15539
798.4,15533
798.5,15529
798.6,15516
798.7,15505
798.8,15493
798.9,15482
799.0,15470
799.1,15460
799.2,15449
799.3,15436
799.4,15428
799.5,15419
799.6,15396
799.7,15369
799.8,15340
799.9,15309
800.0,15278