Created as New Dataset,Sample 383 By Administrator Date Thursday, March 07 2024
nm,INT
500.0,103
500.1,104
500.2,105
500.3,106
500.4,108
500.5,109
500.6,110
500.7,112
500.8,113
500.9,114
501.0,116
501.1,117
501.2,119
501.3,120
501.4,122
501.5,123
501.6,125
501.7,126
501.8,127
501.9,128
502.0,129
502.1,130
502.2,131
502.3,132
502.4,133
502.5,134
502.6,134
502.7,135
502.8,136
502.9,137
503.0,139
503.1,140
503.2,141
503.3,142
503.4,143
503.5,144
503.6,145
503.7,145
503.8,146
503.9,147
504.0,147
504.1,147
504.2,148
504.3,148
504.4,149
504.5,149
504.6,149
504.7,150
504.8,150
504.9,150
505.0,151
505.1,151
505.2,151
505.3,151
505.4,151
505.5,151
505.6,151
505.7,151
505.8,151
505.9,151
506.0,150
506.1,150
506.2,149
506.3,149
506.4,148
506.5,147
506.6,147
506.7,146
506.8,145
506.9,145
507.0,144
507.1,144
507.2,143
507.3,143
507.4,142
507.5,142
507.6,141
507.7,141
507.8,140
507.9,139
508.0,138
508.1,137
508.2,136
508.3,134
508.4,132
508.5,131
508.6,129
508.7,127
508.8,125
508.9,123
509.0,121
509.1,119
509.2,118
509.3,116
509.4,115
509.5,113
509.6,112
509.7,111
509.8,110
509.9,108
510.0,107
510.1,105
510.2,103
510.3,101
510.4,99
510.5,97
510.6,95
510.7,92
510.8,90
510.9,88
511.0,87
511.1,85
511.2,84
511.3,82
511.4,81
511.5,79
511.6,78
511.7,77
511.8,76
511.9,75
512.0,74
512.1,74
512.2,73
512.3,73
512.4,73
512.5,73
512.6,73
512.7,73
512.8,73
512.9,73
513.0,74
513.1,75
513.2,75
513.3,76
513.4,78
513.5,79
513.6,81
513.7,82
513.8,84
513.9,86
514.0,87
514.1,89
514.2,90
514.3,92
514.4,93
514.5,94
514.6,95
514.7,96
514.8,98
514.9,99
515.0,100
515.1,102
515.2,103
515.3,105
515.4,106
515.5,108
515.6,110
515.7,111
515.8,113
515.9,114
516.0,116
516.1,117
516.2,118
516.3,120
516.4,121
516.5,123
516.6,124
516.7,126
516.8,128
516.9,130
517.0,132
517.1,134
517.2,136
517.3,138
517.4,141
517.5,143
517.6,146
517.7,149
517.8,152
517.9,155
518.0,159
518.1,162
518.2,166
518.3,169
518.4,173
518.5,177
518.6,181
518.7,185
518.8,190
518.9,194
519.0,199
519.1,204
519.2,209
519.3,214
519.4,220
519.5,226
519.6,233
519.7,239
519.8,246
519.9,253
520.0,261
520.1,268
520.2,276
520.3,284
520.4,293
520.5,300
520.6,308
520.7,316
520.8,324
520.9,333
521.0,341
521.1,349
521.2,357
521.3,365
521.4,373
521.5,382
521.6,391
521.7,400
521.8,409
521.9,418
522.0,427
522.1,436
522.2,446
522.3,456
522.4,465
522.5,475
522.6,485
522.7,495
522.8,505
522.9,514
523.0,524
523.1,533
523.2,543
523.3,552
523.4,560
523.5,569
523.6,576
523.7,584
523.8,591
523.9,599
524.0,606
524.1,613
524.2,620
524.3,627
524.4,634
524.5,641
524.6,648
524.7,655
524.8,662
524.9,669
525.0,675
525.1,681
525.2,687
525.3,693
525.4,699
525.5,705
525.6,710
525.7,716
525.8,721
525.9,726
526.0,732
526.1,737
526.2,743
526.3,748
526.4,754
526.5,759
526.6,764
526.7,770
526.8,775
526.9,781
527.0,787
527.1,793
527.2,799
527.3,806
527.4,812
527.5,819
527.6,826
527.7,833
527.8,841
527.9,849
528.0,856
528.1,864
528.2,872
528.3,880
528.4,889
528.5,899
528.6,909
528.7,919
528.8,929
528.9,941
529.0,953
529.1,965
529.2,978
529.3,992
529.4,1005
529.5,1019
529.6,1034
529.7,1049
529.8,1064
529.9,1078
530.0,1094
530.1,1110
530.2,1127
530.3,1144
530.4,1162
530.5,1180
530.6,1198
530.7,1217
530.8,1236
530.9,1256
531.0,1276
531.1,1297
531.2,1317
531.3,1338
531.4,1358
531.5,1378
531.6,1399
531.7,1420
531.8,1441
531.9,1462
532.0,1483
532.1,1504
532.2,1525
532.3,1546
532.4,1566
532.5,1587
532.6,1607
532.7,1628
532.8,1648
532.9,1666
533.0,1686
533.1,1707
533.2,1728
533.3,1748
533.4,1769
533.5,1790
533.6,1810
533.7,1831
533.8,1851
533.9,1872
534.0,1892
534.1,1912
534.2,1932
534.3,1952
534.4,1970
534.5,1989
534.6,2008
534.7,2026
534.8,2045
534.9,2064
535.0,2082
535.1,2101
535.2,2119
535.3,2137
535.4,2155
535.5,2174
535.6,2193
535.7,2212
535.8,2231
535.9,2250
536.0,2268
536.1,2288
536.2,2308
536.3,2328
536.4,2348
536.5,2368
536.6,2389
536.7,2410
536.8,2430
536.9,2450
537.0,2471
537.1,2492
537.2,2512
537.3,2533
537.4,2555
537.5,2575
537.6,2594
537.7,2615
537.8,2636
537.9,2657
538.0,2677
538.1,2698
538.2,2718
538.3,2739
538.4,2760
538.5,2781
538.6,2802
538.7,2823
538.8,2844
538.9,2864
539.0,2886
539.1,2907
539.2,2926
539.3,2947
539.4,2968
539.5,2988
539.6,3010
539.7,3031
539.8,3052
539.9,3072
540.0,3093
540.1,3114
540.2,3135
540.3,3156
540.4,3177
540.5,3198
540.6,3219
540.7,3240
540.8,3260
540.9,3282
541.0,3304
541.1,3326
541.2,3348
541.3,3371
541.4,3394
541.5,3417
541.6,3440
541.7,3464
541.8,3487
541.9,3512
542.0,3537
542.1,3560
542.2,3583
542.3,3607
542.4,3634
542.5,3660
542.6,3686
542.7,3712
542.8,3739
542.9,3767
543.0,3794
543.1,3823
543.2,3852
543.3,3880
543.4,3909
543.5,3938
543.6,3967
543.7,3996
543.8,4023
543.9,4051
544.0,4079
544.1,4107
544.2,4136
544.3,4165
544.4,4192
544.5,4220
544.6,4248
544.7,4276
544.8,4305
544.9,4335
545.0,4365
545.1,4395
545.2,4426
545.3,4455
545.4,4487
545.5,4521
545.6,4554
545.7,4587
545.8,4621
545.9,4657
546.0,4692
546.1,4727
546.2,4763
546.3,4799
546.4,4836
546.5,4874
546.6,4913
546.7,4953
546.8,4993
546.9,5034
547.0,5075
547.1,5119
547.2,5163
547.3,5207
547.4,5252
547.5,5298
547.6,5346
547.7,5395
547.8,5446
547.9,5499
548.0,5551
548.1,5605
548.2,5659
548.3,5719
548.4,5779
548.5,5838
548.6,5897
548.7,5957
548.8,6018
548.9,6081
549.0,6146
549.1,6213
549.2,6280
549.3,6349
549.4,6419
549.5,6491
549.6,6566
549.7,6641
549.8,6716
549.9,6791
550.0,6867
550.1,6943
550.2,7021
550.3,7100
550.4,7177
550.5,7255
550.6,7334
550.7,7412
550.8,7494
550.9,7576
551.0,7657
551.1,7737
551.2,7818
551.3,7900
551.4,7984
551.5,8069
551.6,8152
551.7,8236
551.8,8321
551.9,8406
552.0,8494
552.1,8582
552.2,8668
552.3,8755
552.4,8841
552.5,8927
552.6,9015
552.7,9105
552.8,9195
552.9,9279
553.0,9363
553.1,9447
553.2,9531
553.3,9617
553.4,9704
553.5,9789
553.6,9874
553.7,9960
553.8,10045
553.9,10133
554.0,10223
554.1,10309
554.2,10396
554.3,10483
554.4,10574
554.5,10665
554.6,10755
554.7,10845
554.8,10936
554.9,11028
555.0,11121
555.1,11218
555.2,11315
555.3,11411
555.4,11507
555.5,11604
555.6,11706
555.7,11808
555.8,11909
555.9,12010
556.0,12112
556.1,12215
556.2,12319
556.3,12427
556.4,12536
556.5,12642
556.6,12749
556.7,12855
556.8,12962
556.9,13073
557.0,13186
557.1,13296
557.2,13417
557.3,13529
557.4,13643
557.5,13762
557.6,13883
557.7,14002
557.8,14121
557.9,14243
558.0,14366
558.1,14494
558.2,14623
558.3,14749
558.4,14876
558.5,15004
558.6,15133
558.7,15266
558.8,15399
558.9,15529
559.0,15658
559.1,15788
559.2,15917
559.3,16051
559.4,16186
559.5,16316
559.6,16448
559.7,16580
559.8,16713
559.9,16852
560.0,16992
560.1,17128
560.2,17266
560.3,17404
560.4,17543
560.5,17687
560.6,17831
560.7,17970
560.8,18110
560.9,18250
561.0,18391
561.1,18537
561.2,18684
561.3,18827
561.4,18970
561.5,19115
561.6,19271
561.7,19420
561.8,19571
561.9,19724
562.0,19871
562.1,20019
562.2,20167
562.3,20316
562.4,20471
562.5,20629
562.6,20781
562.7,20935
562.8,21091
562.9,21255
563.0,21418
563.1,21577
563.2,21737
563.3,21898
563.4,22060
563.5,22223
563.6,22393
563.7,22566
563.8,22732
563.9,22900
564.0,23071
564.1,23250
564.2,23430
564.3,23605
564.4,23781
564.5,23958
564.6,24137
564.7,24316
564.8,24501
564.9,24688
565.0,24869
565.1,25050
565.2,25233
565.3,25417
565.4,25608
565.5,25802
565.6,25990
565.7,26178
565.8,26368
565.9,26570
566.0,26774
566.1,26971
566.2,27161
566.3,27350
566.4,27539
566.5,27728
566.6,27925
566.7,28123
566.8,28313
566.9,28504
567.0,28697
567.1,28890
567.2,29091
567.3,29293
567.4,29488
567.5,29684
567.6,29880
567.7,30076
567.8,30281
567.9,30485
568.0,30683
568.1,30881
568.2,31080
568.3,31280
568.4,31488
568.5,31698
568.6,31900
568.7,32104
568.8,32309
568.9,32515
569.0,32730
569.1,32945
569.2,33154
569.3,33364
569.4,33576
569.5,33788
569.6,34009
569.7,34231
569.8,34447
569.9,34663
570.0,34881
570.1,35098
570.2,35325
570.3,35559
570.4,35792
570.5,36011
570.6,36232
570.7,36453
570.8,36675
570.9,36906
571.0,37141
571.1,37369
571.2,37600
571.3,37834
571.4,38080
571.5,38325
571.6,38565
571.7,38807
571.8,39051
571.9,39294
572.0,39538
572.1,39788
572.2,40041
572.3,40283
572.4,40523
572.5,40764
572.6,41013
572.7,41260
572.8,41499
572.9,41738
573.0,41977
573.1,42217
573.2,42457
573.3,42705
573.4,42957
573.5,43199
573.6,43442
573.7,43685
573.8,43929
573.9,44180
574.0,44435
574.1,44679
574.2,44923
574.3,45166
574.4,45421
574.5,45672
574.6,45914
574.7,46158
574.8,46421
574.9,46662
575.0,46902
575.1,47153
575.2,47404
575.3,47645
575.4,47887
575.5,48131
575.6,48375
575.7,48630
575.8,48885
575.9,49131
576.0,49377
576.1,49623
576.2,49868
576.3,50125
576.4,50381
576.5,50625
576.6,50868
576.7,51111
576.8,51355
576.9,51611
577.0,51869
577.1,52112
577.2,52341
577.3,52588
577.4,52838
577.5,53089
577.6,53342
577.7,53595
577.8,53830
577.9,54094
578.0,54350
578.1,54589
578.2,54843
578.3,55077
578.4,55342
578.5,55608
578.6,55856
578.7,56091
578.8,56345
578.9,56601
579.0,56856
579.1,57110
579.2,57367
579.3,57646
579.4,57903
579.5,58161
579.6,58437
579.7,58724
579.8,59005
579.9,59271
580.0,59539
580.1,59809
580.2,60097
580.3,60395
580.4,60683
580.5,60954
580.6,61225
580.7,61520
580.8,61791
580.9,62081
581.0,62365
581.1,62641
581.2,62929
581.3,63198
581.4,63467
581.5,63757
581.6,64057
581.7,64344
581.8,64615
581.9,64888
582.0,65183
582.1,65453
582.2,65723
582.3,66013
582.4,66313
582.5,66599
582.6,66869
582.7,67138
582.8,67408
582.9,67696
583.0,67998
583.1,68291
583.2,68568
583.3,68861
583.4,69131
583.5,69402
583.6,69699
583.7,70001
583.8,70287
583.9,70559
584.0,70830
584.1,71101
584.2,71392
584.3,71671
584.4,71963
584.5,72262
584.6,72534
584.7,72828
584.8,73096
584.9,73363
585.0,73655
585.1,73958
585.2,74243
585.3,74511
585.4,74780
585.5,75073
585.6,75350
585.7,75651
585.8,75953
585.9,76235
586.0,76535
586.1,76814
586.2,77093
586.3,77372
586.4,77690
586.5,78015
586.6,78294
586.7,78573
586.8,78853
586.9,79153
587.0,79439
587.1,79743
587.2,80064
587.3,80365
587.4,80644
587.5,80925
587.6,81205
587.7,81501
587.8,81819
587.9,82135
588.0,82415
588.1,82696
588.2,82999
588.3,83284
588.4,83595
588.5,83905
588.6,84189
588.7,84489
588.8,84765
588.9,85039
589.0,85312
589.1,85624
589.2,85941
589.3,86208
589.4,86472
589.5,86757
589.6,87019
589.7,87276
589.8,87559
589.9,87857
590.0,88127
590.1,88377
590.2,88624
590.3,88870
590.4,89163
590.5,89447
590.6,89688
590.7,89927
590.8,90166
590.9,90422
591.0,90662
591.1,90931
591.2,91208
591.3,91457
591.4,91690
591.5,91922
591.6,92153
591.7,92398
591.8,92672
591.9,92937
592.0,93167
592.1,93397
592.2,93647
592.3,93878
592.4,94149
592.5,94407
592.6,94642
592.7,94887
592.8,95114
592.9,95340
593.0,95580
593.1,95851
593.2,96102
593.3,96323
593.4,96546
593.5,96785
593.6,97003
593.7,97221
593.8,97475
593.9,97736
594.0,97968
594.1,98185
594.2,98403
594.3,98620
594.4,98851
594.5,99112
594.6,99364
594.7,99580
594.8,99795
594.9,100029
595.0,100244
595.1,100501
595.2,100753
595.3,100973
595.4,101181
595.5,101387
595.6,101589
595.7,101805
595.8,102008
595.9,102236
596.0,102475
596.1,102670
596.2,102880
596.3,103073
596.4,103266
596.5,103499
596.6,103738
596.7,103944
596.8,104136
596.9,104329
597.0,104536
597.1,104729
597.2,104957
597.3,105182
597.4,105370
597.5,105566
597.6,105747
597.7,105927
597.8,106108
597.9,106334
598.0,106569
598.1,106750
598.2,106932
598.3,107115
598.4,107312
598.5,107502
598.6,107721
598.7,107955
598.8,108143
598.9,108346
599.0,108532
599.1,108719
599.2,108915
599.3,109143
599.4,109375
599.5,109557
599.6,109738
599.7,109932
599.8,110111
599.9,110327
600.0,110542
600.1,110718
600.2,110905
600.3,111077
600.4,111249
600.5,111421
600.6,111639
600.7,111869
600.8,112043
600.9,112219
601.0,112410
601.1,112586
601.2,112758
601.3,112966
601.4,113190
601.5,113371
601.6,113538
601.7,113701
601.8,113861
601.9,114076
602.0,114279
602.1,114434
602.2,114589
602.3,114743
602.4,114908
602.5,115063
602.6,115260
602.7,115457
602.8,115612
602.9,115777
603.0,115930
603.1,116083
603.2,116245
603.3,116447
603.4,116642
603.5,116791
603.6,116938
603.7,117097
603.8,117242
603.9,117439
604.0,117619
604.1,117765
604.2,117917
604.3,118059
604.4,118200
604.5,118342
604.6,118540
604.7,118730
604.8,118871
604.9,119012
605.0,119164
605.1,119301
605.2,119437
605.3,119618
605.4,119802
605.5,119941
605.6,120071
605.7,120199
605.8,120327
605.9,120461
606.0,120637
606.1,120807
606.2,120930
606.3,121052
606.4,121185
606.5,121307
606.6,121483
606.7,121642
606.8,121766
606.9,121894
607.0,122012
607.1,122130
607.2,122255
607.3,122373
607.4,122526
607.5,122693
607.6,122804
607.7,122921
607.8,123024
607.9,123123
608.0,123267
608.1,123412
608.2,123509
608.3,123598
608.4,123683
608.5,123767
608.6,123854
608.7,123986
608.8,124116
608.9,124201
609.0,124292
609.1,124378
609.2,124464
609.3,124551
609.4,124685
609.5,124829
609.6,124918
609.7,125009
609.8,125099
609.9,125196
610.0,125288
610.1,125417
610.2,125562
610.3,125653
610.4,125752
610.5,125842
610.6,125931
610.7,126065
610.8,126200
610.9,126288
611.0,126368
611.1,126447
611.2,126531
611.3,126608
611.4,126731
611.5,126853
611.6,126928
611.7,127007
611.8,127081
611.9,127156
612.0,127230
612.1,127349
612.2,127475
612.3,127543
612.4,127608
612.5,127671
612.6,127734
612.7,127792
612.8,127886
612.9,127995
613.0,128049
613.1,128096
613.2,128143
613.3,128189
613.4,128288
613.5,128378
613.6,128420
613.7,128461
613.8,128499
613.9,128538
614.0,128571
614.1,128652
614.2,128732
614.3,128763
614.4,128795
614.5,128822
614.6,128847
614.7,128871
614.8,128940
614.9,129016
615.0,129039
615.1,129060
615.2,129081
615.3,129098
615.4,129171
615.5,129228
615.6,129247
615.7,129268
615.8,129289
615.9,129312
616.0,129336
616.1,129416
616.2,129490
616.3,129520
616.4,129552
616.5,129585
616.6,129621
616.7,129654
616.8,129734
616.9,129813
617.0,129845
617.1,129874
617.2,129902
617.3,129930
617.4,129960
617.5,130038
617.6,130114
617.7,130142
617.8,130169
617.9,130199
618.0,130226
618.1,130309
618.2,130375
618.3,130400
618.4,130426
618.5,130449
618.6,130472
618.7,130495
618.8,130520
618.9,130584
619.0,130662
619.1,130682
619.2,130704
619.3,130721
619.4,130736
619.5,130796
619.6,130854
619.7,130861
619.8,130864
619.9,130862
620.0,130857
620.1,130850
620.2,130887
620.3,130923
620.4,130910
620.5,130897
620.6,130880
620.7,130863
620.8,130844
620.9,130867
621.0,130898
621.1,130876
621.2,130854
621.3,130831
621.4,130806
621.5,130782
621.6,130798
621.7,130831
621.8,130809
621.9,130786
622.0,130764
622.1,130743
622.2,130769
622.3,130794
622.4,130770
622.5,130749
622.6,130727
622.7,130705
622.8,130681
622.9,130705
623.0,130730
623.1,130707
623.2,130681
623.3,130655
623.4,130627
623.5,130597
623.6,130606
623.7,130619
623.8,130581
623.9,130539
624.0,130495
624.1,130445
624.2,130397
624.3,130389
624.4,130396
624.5,130348
624.6,130296
624.7,130250
624.8,130205
624.9,130208
625.0,130202
625.1,130156
625.2,130109
625.3,130060
625.4,130006
625.5,129953
625.6,129945
625.7,129935
625.8,129876
625.9,129812
626.0,129751
626.1,129688
626.2,129625
626.3,129600
626.4,129583
626.5,129521
626.6,129459
626.7,129399
626.8,129337
626.9,129332
627.0,129315
627.1,129261
627.2,129205
627.3,129153
627.4,129102
627.5,129050
627.6,129044
627.7,129028
627.8,128972
627.9,128913
628.0,128855
628.1,128792
628.2,128733
628.3,128720
628.4,128708
628.5,128651
628.6,128592
628.7,128539
628.8,128488
628.9,128436
629.0,128431
629.1,128429
629.2,128382
629.3,128336
629.4,128285
629.5,128238
629.6,128242
629.7,128231
629.8,128181
629.9,128127
630.0,128073
630.1,128017
630.2,127958
630.3,127893
630.4,127862
630.5,127848
630.6,127780
630.7,127709
630.8,127631
630.9,127556
631.0,127525
631.1,127489
631.2,127407
631.3,127327
631.4,127246
631.5,127163
631.6,127071
631.7,127025
631.8,126980
631.9,126891
632.0,126802
632.1,126704
632.2,126614
632.3,126524
632.4,126471
632.5,126430
632.6,126336
632.7,126249
632.8,126160
632.9,126064
633.0,125971
633.1,125914
633.2,125869
633.3,125773
633.4,125668
633.5,125571
633.6,125476
633.7,125422
633.8,125364
633.9,125262
634.0,125168
634.1,125076
634.2,124985
634.3,124891
634.4,124844
634.5,124801
634.6,124717
634.7,124635
634.8,124548
634.9,124471
635.0,124395
635.1,124353
635.2,124318
635.3,124242
635.4,124165
635.5,124087
635.6,124004
635.7,123923
635.8,123879
635.9,123848
636.0,123767
636.1,123681
636.2,123601
636.3,123523
636.4,123487
636.5,123448
636.6,123365
636.7,123287
636.8,123208
636.9,123120
637.0,123034
637.1,122989
637.2,122943
637.3,122853
637.4,122756
637.5,122665
637.6,122573
637.7,122481
637.8,122420
637.9,122366
638.0,122273
638.1,122180
638.2,122087
638.3,121988
638.4,121939
638.5,121880
638.6,121788
638.7,121696
638.8,121596
638.9,121504
639.0,121412
639.1,121356
639.2,121293
639.3,121197
639.4,121100
639.5,121001
639.6,120890
639.7,120784
639.8,120718
639.9,120652
640.0,120545
640.1,120432
640.2,120328
640.3,120225
640.4,120167
640.5,120093
640.6,119988
640.7,119890
640.8,119792
640.9,119686
641.0,119588
641.1,119536
641.2,119472
641.3,119374
641.4,119272
641.5,119177
641.6,119083
641.7,118989
641.8,118891
641.9,118828
642.0,118782
642.1,118693
642.2,118603
642.3,118507
642.4,118417
642.5,118368
642.6,118319
642.7,118231
642.8,118139
642.9,118053
643.0,117967
643.1,117876
643.2,117826
643.3,117778
643.4,117691
643.5,117602
643.6,117503
643.7,117411
643.8,117318
643.9,117255
644.0,117200
644.1,117095
644.2,116994
644.3,116893
644.4,116792
644.5,116686
644.6,116611
644.7,116553
644.8,116450
644.9,116337
645.0,116234
645.1,116129
645.2,116060
645.3,115984
645.4,115864
645.5,115746
645.6,115625
645.7,115500
645.8,115364
645.9,115264
646.0,115166
646.1,115027
646.2,114884
646.3,114725
646.4,114577
646.5,114430
646.6,114312
646.7,114201
646.8,114041
646.9,113891
647.0,113744
647.1,113588
647.2,113439
647.3,113328
647.4,113231
647.5,113092
647.6,112943
647.7,112808
647.8,112674
647.9,112577
648.0,112474
648.1,112330
648.2,112195
648.3,112059
648.4,111922
648.5,111778
648.6,111674
648.7,111577
648.8,111445
648.9,111308
649.0,111185
649.1,111068
649.2,110954
649.3,110872
649.4,110800
649.5,110698
649.6,110600
649.7,110505
649.8,110407
649.9,110356
650.0,110296
650.1,110208
650.2,110121
650.3,110028
650.4,109943
650.5,109858
650.6,109810
650.7,109760
650.8,109673
650.9,109591
651.0,109510
651.1,109425
651.2,109346
651.3,109304
651.4,109264
651.5,109188
651.6,109107
651.7,109033
651.8,108959
651.9,108926
652.0,108878
652.1,108797
652.2,108718
652.3,108636
652.4,108551
652.5,108458
652.6,108407
652.7,108345
652.8,108247
652.9,108142
653.0,108042
653.1,107939
653.2,107834
653.3,107722
653.4,107639
653.5,107571
653.6,107460
653.7,107346
653.8,107220
653.9,107101
654.0,107018
654.1,106933
654.2,106808
654.3,106673
654.4,106547
654.5,106420
654.6,106335
654.7,106232
654.8,106098
654.9,105971
655.0,105844
655.1,105706
655.2,105579
655.3,105453
655.4,105357
655.5,105269
655.6,105132
655.7,105004
655.8,104876
655.9,104747
656.0,104611
656.1,104506
656.2,104418
656.3,104288
656.4,104160
656.5,104021
656.6,103892
656.7,103802
656.8,103707
656.9,103574
657.0,103449
657.1,103324
657.2,103201
657.3,103072
657.4,102983
657.5,102898
657.6,102778
657.7,102658
657.8,102528
657.9,102408
658.0,102290
658.1,102203
658.2,102125
658.3,102000
658.4,101884
658.5,101770
658.6,101656
658.7,101538
658.8,101451
658.9,101384
659.0,101274
659.1,101159
659.2,101055
659.3,100953
659.4,100890
659.5,100824
659.6,100720
659.7,100625
659.8,100533
659.9,100444
660.0,100353
660.1,100304
660.2,100260
660.3,100182
660.4,100107
660.5,100029
660.6,99960
660.7,99895
660.8,99864
660.9,99842
661.0,99784
661.1,99727
661.2,99669
661.3,99608
661.4,99593
661.5,99566
661.6,99506
661.7,99444
661.8,99374
661.9,99307
662.0,99240
662.1,99209
662.2,99177
662.3,99105
662.4,99038
662.5,98973
662.6,98909
662.7,98841
662.8,98815
662.9,98793
663.0,98732
663.1,98668
663.2,98609
663.3,98548
663.4,98531
663.5,98496
663.6,98428
663.7,98362
663.8,98295
663.9,98225
664.0,98147
664.1,98116
664.2,98072
664.3,97993
664.4,97911
664.5,97821
664.6,97736
664.7,97649
664.8,97554
664.9,97491
665.0,97444
665.1,97350
665.2,97254
665.3,97150
665.4,97049
665.5,96988
665.6,96925
665.7,96818
665.8,96703
665.9,96595
666.0,96486
666.1,96422
666.2,96340
666.3,96223
666.4,96112
666.5,96000
666.6,95888
666.7,95768
666.8,95654
666.9,95576
667.0,95507
667.1,95384
667.2,95267
667.3,95148
667.4,95027
667.5,94898
667.6,94802
667.7,94723
667.8,94595
667.9,94465
668.0,94323
668.1,94189
668.2,94097
668.3,94004
668.4,93868
668.5,93721
668.6,93583
668.7,93443
668.8,93293
668.9,93185
669.0,93081
669.1,92936
669.2,92790
669.3,92627
669.4,92476
669.5,92327
669.6,92211
669.7,92104
669.8,91943
669.9,91793
670.0,91644
670.1,91495
670.2,91338
670.3,91215
670.4,91111
670.5,90961
670.6,90811
670.7,90650
670.8,90501
670.9,90394
671.0,90281
671.1,90125
671.2,89979
671.3,89835
671.4,89693
671.5,89545
671.6,89441
671.7,89344
671.8,89209
671.9,89077
672.0,88939
672.1,88816
672.2,88698
672.3,88616
672.4,88547
672.5,88430
672.6,88324
672.7,88221
672.8,88112
672.9,88055
673.0,87987
673.1,87885
673.2,87781
673.3,87669
673.4,87566
673.5,87463
673.6,87399
673.7,87331
673.8,87221
673.9,87117
674.0,87013
674.1,86909
674.2,86798
674.3,86728
674.4,86661
674.5,86552
674.6,86443
674.7,86322
674.8,86208
674.9,86139
675.0,86050
675.1,85926
675.2,85808
675.3,85689
675.4,85569
675.5,85438
675.6,85358
675.7,85267
675.8,85141
675.9,85015
676.0,84877
676.1,84750
676.2,84621
676.3,84533
676.4,84441
676.5,84305
676.6,84177
676.7,84049
676.8,83908
676.9,83775
677.0,83683
677.1,83590
677.2,83454
677.3,83309
677.4,83175
677.5,83040
677.6,82952
677.7,82843
677.8,82701
677.9,82568
678.0,82437
678.1,82307
678.2,82170
678.3,82041
678.4,81950
678.5,81873
678.6,81749
678.7,81616
678.8,81498
678.9,81380
679.0,81255
679.1,81166
679.2,81095
679.3,80976
679.4,80857
679.5,80729
679.6,80608
679.7,80529
679.8,80449
679.9,80326
680.0,80194
680.1,80071
680.2,79948
680.3,79826
680.4,79734
680.5,79648
680.6,79524
680.7,79400
680.8,79264
680.9,79139
681.0,79015
681.1,78925
681.2,78844
681.3,78710
681.4,78583
681.5,78456
681.6,78327
681.7,78191
681.8,78088
681.9,78003
682.0,77870
682.1,77735
682.2,77588
682.3,77450
682.4,77353
682.5,77257
682.6,77119
682.7,76973
682.8,76839
682.9,76707
683.0,76567
683.1,76472
683.2,76383
683.3,76257
683.4,76132
683.5,75997
683.6,75875
683.7,75756
683.8,75671
683.9,75598
684.0,75475
684.1,75361
684.2,75250
684.3,75138
684.4,75065
684.5,74987
684.6,74878
684.7,74769
684.8,74652
684.9,74546
685.0,74440
685.1,74374
685.2,74305
685.3,74195
685.4,74090
685.5,73986
685.6,73882
685.7,73772
685.8,73702
685.9,73636
686.0,73530
686.1,73425
686.2,73310
686.3,73204
686.4,73146
686.5,73076
686.6,72972
686.7,72865
686.8,72766
686.9,72667
687.0,72562
687.1,72505
687.2,72438
687.3,72337
687.4,72233
687.5,72120
687.6,72012
687.7,71901
687.8,71825
687.9,71740
688.0,71609
688.1,71483
688.2,71353
688.3,71220
688.4,71075
688.5,70968
688.6,70864
688.7,70716
688.8,70558
688.9,70413
689.0,70268
689.1,70167
689.2,70046
689.3,69892
689.4,69746
689.5,69601
689.6,69455
689.7,69297
689.8,69144
689.9,69025
690.0,68916
690.1,68759
690.2,68588
690.3,68430
690.4,68269
690.5,68145
690.6,68015
690.7,67842
690.8,67679
690.9,67517
691.0,67342
691.1,67178
691.2,67054
691.3,66931
691.4,66769
691.5,66597
691.6,66439
691.7,66283
691.8,66128
691.9,66001
692.0,65883
692.1,65736
692.2,65592
692.3,65450
692.4,65300
692.5,65161
692.6,65059
692.7,64968
692.8,64835
692.9,64713
693.0,64593
693.1,64478
693.2,64360
693.3,64277
693.4,64214
693.5,64115
693.6,64018
693.7,63916
693.8,63822
693.9,63768
694.0,63716
694.1,63629
694.2,63540
694.3,63459
694.4,63382
694.5,63309
694.6,63269
694.7,63238
694.8,63178
694.9,63121
695.0,63064
695.1,63015
695.2,62969
695.3,62953
695.4,62950
695.5,62904
695.6,62862
695.7,62819
695.8,62776
695.9,62767
696.0,62751
696.1,62704
696.2,62656
696.3,62606
696.4,62551
696.5,62498
696.6,62479
696.7,62452
696.8,62392
696.9,62327
697.0,62264
697.1,62194
697.2,62128
697.3,62057
697.4,62020
697.5,61979
697.6,61906
697.7,61829
697.8,61754
697.9,61669
698.0,61586
698.1,61496
698.2,61400
698.3,61334
698.4,61279
698.5,61177
698.6,61080
698.7,60974
698.8,60877
698.9,60776
699.0,60673
699.1,60605
699.2,60550
699.3,60452
699.4,60361
699.5,60263
699.6,60172
699.7,60077
699.8,60019
699.9,59961
700.0,59866
700.1,59774
700.2,59688
700.3,59597
700.4,59513
700.5,59426
700.6,59376
700.7,59327
700.8,59241
700.9,59157
701.0,59079
701.1,58995
701.2,58919
701.3,58840
701.4,58796
701.5,58754
701.6,58675
701.7,58599
701.8,58529
701.9,58454
702.0,58388
702.1,58319
702.2,58285
702.3,58251
702.4,58181
702.5,58114
702.6,58052
702.7,57985
702.8,57923
702.9,57859
703.0,57827
703.1,57795
703.2,57727
703.3,57660
703.4,57598
703.5,57530
703.6,57465
703.7,57395
703.8,57358
703.9,57318
704.0,57241
704.1,57164
704.2,57091
704.3,57009
704.4,56933
704.5,56851
704.6,56801
704.7,56751
704.8,56664
704.9,56579
705.0,56501
705.1,56414
705.2,56334
705.3,56247
705.4,56192
705.5,56135
705.6,56043
705.7,55954
705.8,55856
705.9,55755
706.0,55660
706.1,55559
706.2,55490
706.3,55421
706.4,55320
706.5,55223
706.6,55119
706.7,55014
706.8,54914
706.9,54809
707.0,54736
707.1,54663
707.2,54557
707.3,54457
707.4,54349
707.5,54241
707.6,54142
707.7,54039
707.8,53970
707.9,53902
708.0,53802
708.1,53708
708.2,53607
708.3,53507
708.4,53414
708.5,53316
708.6,53250
708.7,53186
708.8,53091
708.9,53001
709.0,52906
709.1,52811
709.2,52724
709.3,52632
709.4,52572
709.5,52511
709.6,52419
709.7,52330
709.8,52234
709.9,52140
710.0,52054
710.1,51964
710.2,51907
710.3,51852
710.4,51769
710.5,51693
710.6,51613
710.7,51535
710.8,51464
710.9,51389
711.0,51343
711.1,51297
711.2,51220
711.3,51147
711.4,51068
711.5,50988
711.6,50913
711.7,50835
711.8,50786
711.9,50737
712.0,50659
712.1,50585
712.2,50503
712.3,50427
712.4,50345
712.5,50259
712.6,50204
712.7,50150
712.8,50067
712.9,49987
713.0,49901
713.1,49822
713.2,49737
713.3,49650
713.4,49594
713.5,49538
713.6,49454
713.7,49373
713.8,49286
713.9,49206
714.0,49121
714.1,49035
714.2,48982
714.3,48932
714.4,48856
714.5,48786
714.6,48712
714.7,48646
714.8,48577
714.9,48509
715.0,48471
715.1,48434
715.2,48369
715.3,48307
715.4,48239
715.5,48177
715.6,48111
715.7,48045
715.8,48009
715.9,47974
716.0,47912
716.1,47853
716.2,47791
716.3,47736
716.4,47679
716.5,47621
716.6,47591
716.7,47560
716.8,47503
716.9,47449
717.0,47391
717.1,47337
717.2,47280
717.3,47222
717.4,47190
717.5,47157
717.6,47097
717.7,47038
717.8,46971
717.9,46908
718.0,46838
718.1,46796
718.2,46742
718.3,46659
718.4,46575
718.5,46493
718.6,46403
718.7,46319
718.8,46228
718.9,46168
719.0,46096
719.1,45999
719.2,45903
719.3,45811
719.4,45713
719.5,45623
719.6,45525
719.7,45430
719.8,45356
719.9,45282
720.0,45186
720.1,45096
720.2,45000
720.3,44912
720.4,44816
720.5,44723
720.6,44649
720.7,44572
720.8,44472
720.9,44374
721.0,44267
721.1,44167
721.2,44058
721.3,43954
721.4,43869
721.5,43783
721.6,43676
721.7,43575
721.8,43468
721.9,43371
722.0,43267
722.1,43194
722.2,43111
722.3,43008
722.4,42909
722.5,42817
722.6,42719
722.7,42634
722.8,42545
722.9,42487
723.0,42424
723.1,42341
723.2,42262
723.3,42188
723.4,42109
723.5,42035
723.6,41954
723.7,41876
723.8,41814
723.9,41750
724.0,41662
724.1,41576
724.2,41481
724.3,41393
724.4,41296
724.5,41202
724.6,41126
724.7,41051
724.8,40957
724.9,40855
725.0,40753
725.1,40661
725.2,40564
725.3,40474
725.4,40402
725.5,40337
725.6,40253
725.7,40166
725.8,40080
725.9,40003
726.0,39921
726.1,39867
726.2,39804
726.3,39724
726.4,39647
726.5,39564
726.6,39481
726.7,39405
726.8,39324
726.9,39271
727.0,39211
727.1,39135
727.2,39063
727.3,38988
727.4,38913
727.5,38846
727.6,38776
727.7,38712
727.8,38668
727.9,38629
728.0,38571
728.1,38512
728.2,38459
728.3,38405
728.4,38354
728.5,38309
728.6,38282
728.7,38261
728.8,38221
728.9,38181
729.0,38146
729.1,38111
729.2,38078
729.3,38045
729.4,38030
729.5,38020
729.6,37990
729.7,37959
729.8,37930
729.9,37896
730.0,37864
730.1,37852
730.2,37835
730.3,37802
730.4,37766
730.5,37731
730.6,37699
730.7,37665
730.8,37636
730.9,37629
731.0,37621
731.1,37596
731.2,37571
731.3,37548
731.4,37524
731.5,37499
731.6,37475
731.7,37448
731.8,37435
731.9,37427
732.0,37393
732.1,37359
732.2,37321
732.3,37284
732.4,37243
732.5,37198
732.6,37169
732.7,37147
732.8,37099
732.9,37052
733.0,36999
733.1,36950
733.2,36897
733.3,36845
733.4,36811
733.5,36786
733.6,36739
733.7,36695
733.8,36650
733.9,36611
734.0,36570
734.1,36550
734.2,36529
734.3,36487
734.4,36444
734.5,36404
734.6,36361
734.7,36320
734.8,36278
734.9,36254
735.0,36231
735.1,36190
735.2,36152
735.3,36112
735.4,36075
735.5,36041
735.6,36005
735.7,35988
735.8,35972
735.9,35938
736.0,35906
736.1,35874
736.2,35846
736.3,35817
736.4,35787
736.5,35775
736.6,35764
736.7,35733
736.8,35703
736.9,35670
737.0,35637
737.1,35601
737.2,35564
737.3,35540
737.4,35517
737.5,35476
737.6,35438
737.7,35398
737.8,35362
737.9,35324
738.0,35286
738.1,35262
738.2,35240
738.3,35199
738.4,35153
738.5,35105
738.6,35058
738.7,35004
738.8,34950
738.9,34909
739.0,34869
739.1,34810
739.2,34746
739.3,34680
739.4,34619
739.5,34551
739.6,34504
739.7,34449
739.8,34374
739.9,34300
740.0,34229
740.1,34150
740.2,34076
740.3,33995
740.4,33936
740.5,33869
740.6,33786
740.7,33705
740.8,33629
740.9,33548
741.0,33475
741.1,33398
741.2,33322
741.3,33269
741.4,33218
741.5,33151
741.6,33089
741.7,33025
741.8,32969
741.9,32912
742.0,32857
742.1,32821
742.2,32787
742.3,32736
742.4,32689
742.5,32638
742.6,32593
742.7,32546
742.8,32497
742.9,32466
743.0,32436
743.1,32390
743.2,32349
743.3,32307
743.4,32270
743.5,32240
743.6,32212
743.7,32203
743.8,32198
743.9,32180
744.0,32164
744.1,32149
744.2,32133
744.3,32117
744.4,32098
744.5,32091
744.6,32082
744.7,32053
744.8,32023
744.9,31992
745.0,31955
745.1,31918
745.2,31877
745.3,31850
745.4,31821
745.5,31772
745.6,31723
745.7,31676
745.8,31622
745.9,31571
746.0,31516
746.1,31477
746.2,31438
746.3,31383
746.4,31328
746.5,31277
746.6,31219
746.7,31165
746.8,31108
746.9,31063
747.0,31016
747.1,30956
747.2,30892
747.3,30832
747.4,30764
747.5,30703
747.6,30639
747.7,30575
747.8,30525
747.9,30481
748.0,30418
748.1,30359
748.2,30293
748.3,30226
748.4,30165
748.5,30103
748.6,30054
748.7,30011
748.8,29951
748.9,29897
749.0,29844
749.1,29797
749.2,29758
749.3,29721
749.4,29701
749.5,29689
749.6,29663
749.7,29641
749.8,29623
749.9,29607
750.0,29592
750.1,29593
750.2,29591
750.3,29577
750.4,29561
750.5,29544
750.6,29527
750.7,29508
750.8,29486
750.9,29480
751.0,29467
751.1,29439
751.2,29411
751.3,29384
751.4,29355
751.5,29327
751.6,29301
751.7,29274
751.8,29244
751.9,29225
752.0,29209
752.1,29178
752.2,29142
752.3,29102
752.4,29062
752.5,29015
752.6,28963
752.7,28924
752.8,28883
752.9,28823
753.0,28760
753.1,28700
753.2,28632
753.3,28562
753.4,28495
753.5,28425
753.6,28362
753.7,28302
753.8,28230
753.9,28150
754.0,28070
754.1,27994
754.2,27910
754.3,27823
754.4,27750
754.5,27677
754.6,27593
754.7,27503
754.8,27413
754.9,27331
755.0,27242
755.1,27154
755.2,27074
755.3,27006
755.4,26938
755.5,26860
755.6,26787
755.7,26710
755.8,26635
755.9,26567
756.0,26494
756.1,26435
756.2,26376
756.3,26307
756.4,26233
756.5,26160
756.6,26093
756.7,26021
756.8,25948
756.9,25895
757.0,25838
757.1,25767
757.2,25697
757.3,25628
757.4,25564
757.5,25496
757.6,25430
757.7,25368
757.8,25305
757.9,25251
758.0,25202
758.1,25146
758.2,25088
758.3,25032
758.4,24982
758.5,24931
758.6,24879
758.7,24844
758.8,24811
758.9,24766
759.0,24723
759.1,24683
759.2,24639
759.3,24597
759.4,24558
759.5,24517
759.6,24486
759.7,24456
759.8,24415
759.9,24376
760.0,24335
760.1,24296
760.2,24263
760.3,24229
760.4,24210
760.5,24194
760.6,24171
760.7,24151
760.8,24134
760.9,24122
761.0,24113
761.1,24106
761.2,24101
761.3,24107
761.4,24115
761.5,24110
761.6,24105
761.7,24100
761.8,24094
761.9,24088
762.0,24081
762.1,24086
762.2,24090
762.3,24084
762.4,24080
762.5,24076
762.6,24073
762.7,24070
762.8,24068
762.9,24065
763.0,24073
763.1,24080
763.2,24075
763.3,24068
763.4,24061
763.5,24052
763.6,24042
763.7,24031
763.8,24020
763.9,24016
764.0,24013
764.1,23997
764.2,23979
764.3,23960
764.4,23937
764.5,23913
764.6,23903
764.7,23887
764.8,23858
764.9,23828
765.0,23798
765.1,23764
765.2,23730
765.3,23697
765.4,23661
765.5,23623
765.6,23592
765.7,23564
765.8,23521
765.9,23480
766.0,23436
766.1,23392
766.2,23352
766.3,23311
766.4,23281
766.5,23256
766.6,23224
766.7,23191
766.8,23158
766.9,23129
767.0,23097
767.1,23064
767.2,23042
767.3,23021
767.4,22988
767.5,22957
767.6,22922
767.7,22889
767.8,22860
767.9,22831
768.0,22802
768.1,22786
768.2,22775
768.3,22753
768.4,22731
768.5,22713
768.6,22694
768.7,22677
768.8,22661
768.9,22655
769.0,22653
769.1,22641
769.2,22627
769.3,22613
769.4,22598
769.5,22581
769.6,22563
769.7,22554
769.8,22541
769.9,22514
770.0,22485
770.1,22456
770.2,22425
770.3,22396
770.4,22368
770.5,22339
770.6,22322
770.7,22310
770.8,22286
770.9,22265
771.0,22246
771.1,22225
771.2,22202
771.3,22180
771.4,22165
771.5,22150
771.6,22122
771.7,22095
771.8,22066
771.9,22036
772.0,22002
772.1,21966
772.2,21940
772.3,21912
772.4,21870
772.5,21825
772.6,21779
772.7,21735
772.8,21685
772.9,21634
773.0,21581
773.1,21539
773.2,21497
773.3,21441
773.4,21383
773.5,21323
773.6,21261
773.7,21200
773.8,21133
773.9,21062
774.0,20990
774.1,20927
774.2,20867
774.3,20790
774.4,20712
774.5,20635
774.6,20557
774.7,20485
774.8,20408
774.9,20338
775.0,20265
775.1,20187
775.2,20111
775.3,20031
775.4,19954
775.5,19877
775.6,19802
775.7,19735
775.8,19670
775.9,19614
776.0,19563
776.1,19506
776.2,19454
776.3,19409
776.4,19363
776.5,19321
776.6,19283
776.7,19251
776.8,19228
776.9,19210
777.0,19184
777.1,19161
777.2,19139
777.3,19120
777.4,19101
777.5,19083
777.6,19067
777.7,19064
777.8,19063
777.9,19056
778.0,19053
778.1,19055
778.2,19062
778.3,19073
778.4,19089
778.5,19107
778.6,19136
778.7,19164
778.8,19184
778.9,19205
779.0,19225
779.1,19243
779.2,19261
779.3,19275
779.4,19290
779.5,19304
779.6,19324
779.7,19343
779.8,19350
779.9,19355
780.0,19356
780.1,19354
780.2,19348
780.3,19340
780.4,19337
780.5,19329
780.6,19311
780.7,19291
780.8,19270
780.9,19244
781.0,19214
781.1,19180
781.2,19143
781.3,19106
781.4,19072
781.5,19033
781.6,18982
781.7,18928
781.8,18874
781.9,18824
782.0,18770
782.1,18715
782.2,18659
782.3,18613
782.4,18566
782.5,18507
782.6,18446
782.7,18386
782.8,18325
782.9,18269
783.0,18210
783.1,18154
783.2,18101
783.3,18063
783.4,18032
783.5,17994
783.6,17961
783.7,17933
783.8,17907
783.9,17886
784.0,17865
784.1,17853
784.2,17842
784.3,17825
784.4,17809
784.5,17792
784.6,17776
784.7,17759
784.8,17745
784.9,17732
785.0,17719
785.1,17712
785.2,17706
785.3,17689
785.4,17674
785.5,17658
785.6,17643
785.7,17629
785.8,17616
785.9,17613
786.0,17609
786.1,17598
786.2,17589
786.3,17582
786.4,17575
786.5,17567
786.6,17555
786.7,17541
786.8,17524
786.9,17513
787.0,17501
787.1,17477
787.2,17452
787.3,17423
787.4,17392
787.5,17361
787.6,17325
787.7,17287
787.8,17246
787.9,17213
788.0,17180
788.1,17134
788.2,17086
788.3,17038
788.4,16991
788.5,16948
788.6,16905
788.7,16862
788.8,16827
788.9,16797
789.0,16760
789.1,16722
789.2,16686
789.3,16650
789.4,16614
789.5,16581
789.6,16554
789.7,16525
789.8,16490
789.9,16457
790.0,16427
790.1,16396
790.2,16368
790.3,16339
790.4,16311
790.5,16287
790.6,16272
790.7,16259
790.8,16238
790.9,16219
791.0,16201
791.1,16182
791.2,16165
791.3,16150
791.4,16137
791.5,16132
791.6,16126
791.7,16113
791.8,16100
791.9,16089
792.0,16079
792.1,16069
792.2,16058
792.3,16049
792.4,16048
792.5,16047
792.6,16039
792.7,16031
792.8,16022
792.9,16012
793.0,16001
793.1,15989
793.2,15975
793.3,15959
793.4,15949
793.5,15941
793.6,15925
793.7,15908
793.8,15892
793.9,15876
794.0,15860
794.1,15846
794.2,15833
794.3,15828
794.4,15824
794.5,15811
794.6,15798
794.7,15783
794.8,15767
794.9,15752
795.0,15735
795.1,15717
795.2,15698
795.3,15686
795.4,15676
795.5,15657
795.6,15640
795.7,15621
795.8,15603
795.9,15586
796.0,15572
796.1,15562
796.2,15554
796.3,15556
796.4,15563
796.5,15563
796.6,15566
796.7,15573
796.8,15582
796.9,15592
797.0,15604
797.1,15616
797.2,15630
797.3,15653
797.4,15680
797.5,15699
797.6,15721
797.7,15744
797.8,15770
797.9,15796
798.0,15824
798.1,15853
798.2,15884
798.3,15916
798.4,15957
798.5,16000
798.6,16032
798.7,16063
798.8,16097
798.9,16131
799.0,16165
799.1,16198
799.2,16231
799.3,16261
799.4,16298
799.5,16335
799.6,16360
799.7,16383
799.8,16403
799.9,16421
800.0,16435
