nm,INT
500.0,165
500.1,166
500.2,167
500.3,168
500.4,169
500.5,170
500.6,171
500.7,171
500.8,171
500.9,171
501.0,171
501.1,171
501.2,170
501.3,169
501.4,168
501.5,167
501.6,165
501.7,164
501.8,162
501.9,161
502.0,159
502.1,157
502.2,155
502.3,154
502.4,152
502.5,150
502.6,148
502.7,146
502.8,144
502.9,142
503.0,140
503.1,138
503.2,135
503.3,133
503.4,131
503.5,128
503.6,126
503.7,124
503.8,122
503.9,120
504.0,119
504.1,117
504.2,115
504.3,113
504.4,111
504.5,109
504.6,108
504.7,106
504.8,104
504.9,103
505.0,101
505.1,100
505.2,99
505.3,98
505.4,97
505.5,96
505.6,96
505.7,95
505.8,95
505.9,95
506.0,96
506.1,97
506.2,97
506.3,99
506.4,100
506.5,102
506.6,103
506.7,105
506.8,107
506.9,109
507.0,111
507.1,113
507.2,114
507.3,116
507.4,117
507.5,118
507.6,119
507.7,120
507.8,121
507.9,122
508.0,123
508.1,124
508.2,125
508.3,126
508.4,127
508.5,128
508.6,129
508.7,130
508.8,131
508.9,132
509.0,133
509.1,133
509.2,133
509.3,133
509.4,133
509.5,133
509.6,132
509.7,131
509.8,130
509.9,129
510.0,127
510.1,126
510.2,124
510.3,122
510.4,120
510.5,118
510.6,116
510.7,115
510.8,113
510.9,111
511.0,110
511.1,108
511.2,107
511.3,106
511.4,104
511.5,103
511.6,102
511.7,100
511.8,99
511.9,97
512.0,96
512.1,95
512.2,94
512.3,93
512.4,92
512.5,91
512.6,91
512.7,90
512.8,90
512.9,90
513.0,90
513.1,90
513.2,91
513.3,91
513.4,91
513.5,91
513.6,91
513.7,91
513.8,91
513.9,91
514.0,91
514.1,91
514.2,91
514.3,92
514.4,92
514.5,92
514.6,93
514.7,93
514.8,94
514.9,95
515.0,96
515.1,97
515.2,99
515.3,100
515.4,101
515.5,103
515.6,104
515.7,105
515.8,107
515.9,108
516.0,109
516.1,111
516.2,112
516.3,113
516.4,115
516.5,116
516.6,118
516.7,120
516.8,122
516.9,124
517.0,126
517.1,129
517.2,131
517.3,134
517.4,137
517.5,140
517.6,144
517.7,147
517.8,151
517.9,155
518.0,159
518.1,163
518.2,167
518.3,171
518.4,175
518.5,179
518.6,183
518.7,187
518.8,191
518.9,195
519.0,199
519.1,203
519.2,207
519.3,212
519.4,216
519.5,220
519.6,225
519.7,229
519.8,233
519.9,236
520.0,240
520.1,244
520.2,248
520.3,251
520.4,255
520.5,259
520.6,262
520.7,265
520.8,269
520.9,272
521.0,276
521.1,279
521.2,282
521.3,285
521.4,287
521.5,289
521.6,291
521.7,294
521.8,295
521.9,297
522.0,298
522.1,300
522.2,301
522.3,303
522.4,304
522.5,305
522.6,306
522.7,307
522.8,307
522.9,307
523.0,308
523.1,308
523.2,307
523.3,307
523.4,307
523.5,307
523.6,307
523.7,308
523.8,308
523.9,309
524.0,310
524.1,311
524.2,312
524.3,314
524.4,315
524.5,317
524.6,319
524.7,321
524.8,323
524.9,325
525.0,328
525.1,330
525.2,332
525.3,334
525.4,336
525.5,338
525.6,340
525.7,342
525.8,344
525.9,345
526.0,347
526.1,348
526.2,350
526.3,352
526.4,355
526.5,357
526.6,359
526.7,361
526.8,364
526.9,367
527.0,369
527.1,372
527.2,374
527.3,377
527.4,379
527.5,382
527.6,385
527.7,387
527.8,390
527.9,394
528.0,397
528.1,400
528.2,404
528.3,408
528.4,412
528.5,417
528.6,422
528.7,426
528.8,431
528.9,437
529.0,442
529.1,448
529.2,454
529.3,461
529.4,467
529.5,475
529.6,482
529.7,490
529.8,498
529.9,506
530.0,515
530.1,525
530.2,534
530.3,545
530.4,555
530.5,566
530.6,577
530.7,588
530.8,600
530.9,612
531.0,625
531.1,638
531.2,651
531.3,664
531.4,676
531.5,689
531.6,703
531.7,717
531.8,731
531.9,745
532.0,759
532.1,774
532.2,789
532.3,804
532.4,820
532.5,836
532.6,852
532.7,868
532.8,884
532.9,899
533.0,916
533.1,933
533.2,949
533.3,966
533.4,983
533.5,999
533.6,1016
533.7,1033
533.8,1050
533.9,1067
534.0,1084
534.1,1100
534.2,1117
534.3,1133
534.4,1148
534.5,1163
534.6,1179
534.7,1194
534.8,1208
534.9,1222
535.0,1236
535.1,1249
535.2,1261
535.3,1274
535.4,1285
535.5,1297
535.6,1308
535.7,1319
535.8,1329
535.9,1339
536.0,1348
536.1,1357
536.2,1366
536.3,1375
536.4,1383
536.5,1391
536.6,1399
536.7,1407
536.8,1414
536.9,1421
537.0,1428
537.1,1434
537.2,1440
537.3,1445
537.4,1450
537.5,1455
537.6,1458
537.7,1462
537.8,1466
537.9,1469
538.0,1472
538.1,1474
538.2,1476
538.3,1479
538.4,1481
538.5,1483
538.6,1484
538.7,1485
538.8,1486
538.9,1487
539.0,1488
539.1,1489
539.2,1489
539.3,1490
539.4,1490
539.5,1490
539.6,1489
539.7,1489
539.8,1489
539.9,1489
540.0,1489
540.1,1489
540.2,1488
540.3,1488
540.4,1487
540.5,1487
540.6,1487
540.7,1488
540.8,1489
540.9,1490
541.0,1491
541.1,1493
541.2,1495
541.3,1498
541.4,1502
541.5,1505
541.6,1510
541.7,1514
541.8,1519
541.9,1525
542.0,1532
542.1,1538
542.2,1544
542.3,1551
542.4,1559
542.5,1567
542.6,1576
542.7,1584
542.8,1593
542.9,1602
543.0,1611
543.1,1620
543.2,1630
543.3,1640
543.4,1651
543.5,1661
543.6,1672
543.7,1683
543.8,1693
543.9,1705
544.0,1716
544.1,1728
544.2,1741
544.3,1754
544.4,1766
544.5,1779
544.6,1792
544.7,1805
544.8,1818
544.9,1831
545.0,1844
545.1,1857
545.2,1869
545.3,1881
545.4,1894
545.5,1907
545.6,1919
545.7,1931
545.8,1942
545.9,1954
546.0,1966
546.1,1977
546.2,1988
546.3,1998
546.4,2009
546.5,2019
546.6,2029
546.7,2040
546.8,2050
546.9,2061
547.0,2071
547.1,2082
547.2,2093
547.3,2103
547.4,2114
547.5,2124
547.6,2135
547.7,2145
547.8,2156
547.9,2168
548.0,2178
548.1,2189
548.2,2200
548.3,2211
548.4,2223
548.5,2235
548.6,2246
548.7,2257
548.8,2269
548.9,2280
549.0,2292
549.1,2305
549.2,2318
549.3,2331
549.4,2346
549.5,2361
549.6,2378
549.7,2395
549.8,2413
549.9,2433
550.0,2453
550.1,2475
550.2,2498
550.3,2522
550.4,2546
550.5,2571
550.6,2597
550.7,2623
550.8,2650
550.9,2677
551.0,2705
551.1,2732
551.2,2761
551.3,2790
551.4,2820
551.5,2850
551.6,2880
551.7,2910
551.8,2941
551.9,2971
552.0,3003
552.1,3034
552.2,3065
552.3,3096
552.4,3126
552.5,3157
552.6,3189
552.7,3222
552.8,3256
552.9,3287
553.0,3318
553.1,3350
553.2,3381
553.3,3414
553.4,3446
553.5,3477
553.6,3508
553.7,3539
553.8,3569
553.9,3600
554.0,3631
554.1,3661
554.2,3690
554.3,3719
554.4,3749
554.5,3779
554.6,3807
554.7,3834
554.8,3862
554.9,3889
555.0,3916
555.1,3943
555.2,3971
555.3,3997
555.4,4024
555.5,4050
555.6,4079
555.7,4107
555.8,4135
555.9,4163
556.0,4192
556.1,4221
556.2,4250
556.3,4281
556.4,4312
556.5,4342
556.6,4372
556.7,4402
556.8,4432
556.9,4464
557.0,4497
557.1,4529
557.2,4565
557.3,4598
557.4,4632
557.5,4667
557.6,4704
557.7,4740
557.8,4777
557.9,4815
558.0,4853
558.1,4894
558.2,4936
558.3,4977
558.4,5018
558.5,5061
558.6,5104
558.7,5150
558.8,5196
558.9,5241
559.0,5286
559.1,5332
559.2,5378
559.3,5426
559.4,5474
559.5,5521
559.6,5569
559.7,5616
559.8,5664
559.9,5714
560.0,5764
560.1,5813
560.2,5862
560.3,5912
560.4,5962
560.5,6013
560.6,6065
560.7,6115
560.8,6165
560.9,6215
561.0,6266
561.1,6318
561.2,6370
561.3,6421
561.4,6472
561.5,6523
561.6,6579
561.7,6632
561.8,6687
561.9,6742
562.0,6796
562.1,6850
562.2,6905
562.3,6960
562.4,7018
562.5,7076
562.6,7133
562.7,7190
562.8,7248
562.9,7309
563.0,7369
563.1,7429
563.2,7489
563.3,7550
563.4,7612
563.5,7673
563.6,7738
563.7,7803
563.8,7866
563.9,7929
564.0,7993
564.1,8059
564.2,8125
564.3,8189
564.4,8254
564.5,8319
564.6,8384
564.7,8449
564.8,8516
564.9,8584
565.0,8649
565.1,8715
565.2,8780
565.3,8846
565.4,8913
565.5,8982
565.6,9048
565.7,9114
565.8,9180
565.9,9250
566.0,9321
566.1,9390
566.2,9457
566.3,9524
566.4,9590
566.5,9657
566.6,9727
566.7,9796
566.8,9863
566.9,9930
567.0,9998
567.1,10065
567.2,10136
567.3,10207
567.4,10275
567.5,10343
567.6,10411
567.7,10479
567.8,10549
567.9,10620
568.0,10687
568.1,10754
568.2,10821
568.3,10889
568.4,10958
568.5,11028
568.6,11095
568.7,11161
568.8,11227
568.9,11293
569.0,11361
569.1,11429
569.2,11493
569.3,11557
569.4,11621
569.5,11684
569.6,11750
569.7,11817
569.8,11880
569.9,11944
570.0,12009
570.1,12074
570.2,12142
570.3,12212
570.4,12282
570.5,12347
570.6,12413
570.7,12478
570.8,12544
570.9,12612
571.0,12681
571.1,12746
571.2,12812
571.3,12879
571.4,12949
571.5,13019
571.6,13086
571.7,13154
571.8,13222
571.9,13290
572.0,13358
572.1,13428
572.2,13499
572.3,13567
572.4,13635
572.5,13703
572.6,13774
572.7,13844
572.8,13913
572.9,13982
573.0,14051
573.1,14121
573.2,14191
573.3,14264
573.4,14339
573.5,14410
573.6,14483
573.7,14555
573.8,14629
573.9,14706
574.0,14785
574.1,14862
574.2,14939
574.3,15017
574.4,15099
574.5,15180
574.6,15259
574.7,15339
574.8,15425
574.9,15504
575.0,15583
575.1,15665
575.2,15746
575.3,15824
575.4,15902
575.5,15980
575.6,16059
575.7,16141
575.8,16224
575.9,16303
576.0,16382
576.1,16461
576.2,16539
576.3,16621
576.4,16702
576.5,16780
576.6,16856
576.7,16932
576.8,17007
576.9,17086
577.0,17164
577.1,17238
577.2,17306
577.3,17379
577.4,17453
577.5,17527
577.6,17600
577.7,17671
577.8,17737
577.9,17811
578.0,17881
578.1,17946
578.2,18014
578.3,18076
578.4,18147
578.5,18218
578.6,18283
578.7,18344
578.8,18411
578.9,18479
579.0,18547
579.1,18615
579.2,18684
579.3,18760
579.4,18830
579.5,18902
579.6,18980
579.7,19062
579.8,19144
579.9,19222
580.0,19301
580.1,19382
580.2,19470
580.3,19561
580.4,19651
580.5,19735
580.6,19820
580.7,19913
580.8,20000
580.9,20093
581.0,20185
581.1,20277
581.2,20374
581.3,20465
581.4,20560
581.5,20663
581.6,20771
581.7,20877
581.8,20980
581.9,21087
582.0,21204
582.1,21313
582.2,21424
582.3,21542
582.4,21666
582.5,21788
582.6,21903
582.7,22019
582.8,22135
582.9,22260
583.0,22388
583.1,22514
583.2,22634
583.3,22763
583.4,22882
583.5,23002
583.6,23132
583.7,23264
583.8,23392
583.9,23514
584.0,23636
584.1,23757
584.2,23886
584.3,24009
584.4,24134
584.5,24261
584.6,24376
584.7,24499
584.8,24610
584.9,24719
585.0,24835
585.1,24953
585.2,25065
585.3,25169
585.4,25271
585.5,25380
585.6,25482
585.7,25590
585.8,25697
585.9,25795
586.0,25897
586.1,25989
586.2,26079
586.3,26166
586.4,26264
586.5,26363
586.6,26443
586.7,26522
586.8,26597
586.9,26676
587.0,26750
587.1,26827
587.2,26908
587.3,26979
587.4,27044
587.5,27107
587.6,27169
587.7,27234
587.8,27305
587.9,27377
588.0,27436
588.1,27494
588.2,27558
588.3,27617
588.4,27685
588.5,27752
588.6,27809
588.7,27868
588.8,27922
588.9,27976
589.0,28030
589.1,28095
589.2,28162
589.3,28215
589.4,28269
589.5,28330
589.6,28387
589.7,28444
589.8,28512
589.9,28585
590.0,28648
590.1,28709
590.2,28770
590.3,28832
590.4,28909
590.5,28984
590.6,29046
590.7,29109
590.8,29172
590.9,29242
591.0,29310
591.1,29388
591.2,29470
591.3,29545
591.4,29616
591.5,29689
591.6,29763
591.7,29843
591.8,29934
591.9,30023
592.0,30101
592.1,30181
592.2,30269
592.3,30352
592.4,30447
592.5,30539
592.6,30625
592.7,30715
592.8,30799
592.9,30882
593.0,30971
593.1,31069
593.2,31160
593.3,31242
593.4,31323
593.5,31411
593.6,31490
593.7,31568
593.8,31657
593.9,31748
594.0,31829
594.1,31904
594.2,31979
594.3,32051
594.4,32127
594.5,32210
594.6,32289
594.7,32355
594.8,32420
594.9,32489
595.0,32552
595.1,32627
595.2,32700
595.3,32762
595.4,32820
595.5,32878
595.6,32935
595.7,32994
595.8,33049
595.9,33111
596.0,33175
596.1,33224
596.2,33274
596.3,33318
596.4,33362
596.5,33416
596.6,33469
596.7,33510
596.8,33548
596.9,33585
597.0,33624
597.1,33661
597.2,33710
597.3,33760
597.4,33797
597.5,33837
597.6,33876
597.7,33915
597.8,33955
597.9,34009
598.0,34068
598.1,34110
598.2,34153
598.3,34196
598.4,34242
598.5,34286
598.6,34340
598.7,34398
598.8,34441
598.9,34488
599.0,34530
599.1,34573
599.2,34618
599.3,34675
599.4,34736
599.5,34782
599.6,34829
599.7,34881
599.8,34930
599.9,34992
600.0,35055
600.1,35107
600.2,35163
600.3,35215
600.4,35266
600.5,35318
600.6,35384
600.7,35453
600.8,35504
600.9,35555
601.0,35611
601.1,35661
601.2,35710
601.3,35770
601.4,35837
601.5,35889
601.6,35939
601.7,35988
601.8,36037
601.9,36104
602.0,36167
602.1,36217
602.2,36266
602.3,36315
602.4,36367
602.5,36415
602.6,36476
602.7,36536
602.8,36582
602.9,36630
603.0,36673
603.1,36715
603.2,36759
603.3,36816
603.4,36872
603.5,36913
603.6,36954
603.7,36997
603.8,37037
603.9,37093
604.0,37144
604.1,37183
604.2,37223
604.3,37259
604.4,37293
604.5,37326
604.6,37376
604.7,37422
604.8,37453
604.9,37483
605.0,37513
605.1,37540
605.2,37567
605.3,37608
605.4,37650
605.5,37677
605.6,37702
605.7,37727
605.8,37750
605.9,37776
606.0,37815
606.1,37852
606.2,37874
606.3,37896
606.4,37919
606.5,37939
606.6,37975
606.7,38005
606.8,38023
606.9,38040
607.0,38055
607.1,38069
607.2,38085
607.3,38099
607.4,38126
607.5,38156
607.6,38170
607.7,38184
607.8,38199
607.9,38214
608.0,38243
608.1,38273
608.2,38288
608.3,38302
608.4,38317
608.5,38333
608.6,38349
608.7,38379
608.8,38408
608.9,38422
609.0,38436
609.1,38450
609.2,38463
609.3,38476
609.4,38503
609.5,38531
609.6,38543
609.7,38554
609.8,38565
609.9,38576
610.0,38586
610.1,38607
610.2,38633
610.3,38641
610.4,38649
610.5,38657
610.6,38664
610.7,38686
610.8,38708
610.9,38715
611.0,38722
611.1,38729
611.2,38735
611.3,38741
611.4,38762
611.5,38781
611.6,38786
611.7,38790
611.8,38793
611.9,38795
612.0,38795
612.1,38808
612.2,38823
612.3,38821
612.4,38819
612.5,38816
612.6,38812
612.7,38807
612.8,38815
612.9,38828
613.0,38823
613.1,38818
613.2,38814
613.3,38809
613.4,38820
613.5,38829
613.6,38825
613.7,38822
613.8,38820
613.9,38816
614.0,38814
614.1,38826
614.2,38838
614.3,38837
614.4,38835
614.5,38835
614.6,38836
614.7,38837
614.8,38853
614.9,38871
615.0,38875
615.1,38880
615.2,38886
615.3,38892
615.4,38915
615.5,38934
615.6,38940
615.7,38946
615.8,38951
615.9,38957
616.0,38962
616.1,38983
616.2,39001
616.3,39004
616.4,39008
616.5,39011
616.6,39013
616.7,39015
616.8,39031
616.9,39045
617.0,39044
617.1,39042
617.2,39040
617.3,39038
617.4,39035
617.5,39045
617.6,39054
617.7,39048
617.8,39041
617.9,39032
618.0,39022
618.1,39027
618.2,39027
618.3,39014
618.4,38998
618.5,38983
618.6,38967
618.7,38951
618.8,38933
618.9,38928
619.0,38929
619.1,38912
619.2,38895
619.3,38877
619.4,38859
619.5,38854
619.6,38849
619.7,38828
619.8,38807
619.9,38785
620.0,38763
620.1,38738
620.2,38727
620.3,38717
620.4,38693
620.5,38670
620.6,38645
620.7,38622
620.8,38599
620.9,38588
621.0,38580
621.1,38558
621.2,38537
621.3,38516
621.4,38493
621.5,38472
621.6,38463
621.7,38458
621.8,38437
621.9,38414
622.0,38393
622.1,38371
622.2,38364
622.3,38357
622.4,38335
622.5,38316
622.6,38298
622.7,38280
622.8,38263
622.9,38261
623.0,38261
623.1,38247
623.2,38233
623.3,38221
623.4,38210
623.5,38200
623.6,38202
623.7,38206
623.8,38196
623.9,38186
624.0,38176
624.1,38165
624.2,38155
624.3,38156
624.4,38162
624.5,38151
624.6,38139
624.7,38128
624.8,38118
624.9,38122
625.0,38125
625.1,38116
625.2,38108
625.3,38100
625.4,38091
625.5,38084
625.6,38090
625.7,38096
625.8,38087
625.9,38078
626.0,38069
626.1,38058
626.2,38046
626.3,38045
626.4,38045
626.5,38031
626.6,38015
626.7,37998
626.8,37980
626.9,37976
627.0,37967
627.1,37946
627.2,37923
627.3,37901
627.4,37878
627.5,37855
627.6,37844
627.7,37829
627.8,37802
627.9,37774
628.0,37746
628.1,37714
628.2,37681
628.3,37661
628.4,37638
628.5,37600
628.6,37556
628.7,37515
628.8,37472
628.9,37426
629.0,37393
629.1,37360
629.2,37314
629.3,37267
629.4,37215
629.5,37167
629.6,37134
629.7,37096
629.8,37046
629.9,36992
630.0,36941
630.1,36890
630.2,36838
630.3,36782
630.4,36738
630.5,36700
630.6,36648
630.7,36595
630.8,36537
630.9,36483
631.0,36443
631.1,36400
631.2,36344
631.3,36292
631.4,36240
631.5,36187
631.6,36132
631.7,36092
631.8,36054
631.9,36004
632.0,35954
632.1,35900
632.2,35849
632.3,35799
632.4,35758
632.5,35720
632.6,35665
632.7,35614
632.8,35561
632.9,35503
633.0,35448
633.1,35404
633.2,35364
633.3,35309
633.4,35251
633.5,35197
633.6,35143
633.7,35100
633.8,35054
633.9,34994
634.0,34938
634.1,34882
634.2,34825
634.3,34764
634.4,34716
634.5,34669
634.6,34610
634.7,34551
634.8,34487
634.9,34429
635.0,34370
635.1,34320
635.2,34271
635.3,34212
635.4,34154
635.5,34097
635.6,34037
635.7,33979
635.8,33933
635.9,33891
636.0,33836
636.1,33776
636.2,33723
636.3,33670
636.4,33629
636.5,33586
636.6,33530
636.7,33478
636.8,33426
636.9,33371
637.0,33320
637.1,33282
637.2,33245
637.3,33197
637.4,33147
637.5,33102
637.6,33058
637.7,33016
637.8,32983
637.9,32953
638.0,32915
638.1,32878
638.2,32843
638.3,32807
638.4,32786
638.5,32765
638.6,32737
638.7,32710
638.8,32682
638.9,32657
639.0,32634
639.1,32622
639.2,32610
639.3,32590
639.4,32572
639.5,32554
639.6,32534
639.7,32516
639.8,32508
639.9,32501
640.0,32484
640.1,32466
640.2,32450
640.3,32432
640.4,32427
640.5,32418
640.6,32400
640.7,32385
640.8,32370
640.9,32355
641.0,32340
641.1,32339
641.2,32334
641.3,32320
641.4,32306
641.5,32292
641.6,32278
641.7,32262
641.8,32245
641.9,32234
642.0,32227
642.1,32206
642.2,32182
642.3,32156
642.4,32130
642.5,32113
642.6,32096
642.7,32066
642.8,32033
642.9,32001
643.0,31969
643.1,31934
643.2,31910
643.3,31886
643.4,31850
643.5,31813
643.6,31770
643.7,31729
643.8,31688
643.9,31654
644.0,31620
644.1,31570
644.2,31522
644.3,31471
644.4,31420
644.5,31364
644.6,31316
644.7,31272
644.8,31215
644.9,31152
645.0,31092
645.1,31030
645.2,30978
645.3,30921
645.4,30852
645.5,30784
645.6,30716
645.7,30646
645.8,30572
645.9,30508
646.0,30445
646.1,30373
646.2,30301
646.3,30221
646.4,30147
646.5,30073
646.6,30007
646.7,29942
646.8,29863
646.9,29789
647.0,29716
647.1,29639
647.2,29565
647.3,29502
647.4,29443
647.5,29372
647.6,29297
647.7,29228
647.8,29160
647.9,29100
648.0,29038
648.1,28966
648.2,28898
648.3,28830
648.4,28763
648.5,28693
648.6,28636
648.7,28582
648.8,28520
648.9,28456
649.0,28398
649.1,28342
649.2,28287
649.3,28239
649.4,28193
649.5,28140
649.6,28088
649.7,28036
649.8,27980
649.9,27938
650.0,27894
650.1,27843
650.2,27791
650.3,27736
650.4,27686
650.5,27635
650.6,27593
650.7,27550
650.8,27496
650.9,27445
651.0,27393
651.1,27337
651.2,27285
651.3,27242
651.4,27199
651.5,27147
651.6,27091
651.7,27041
651.8,26991
651.9,26951
652.0,26907
652.1,26854
652.2,26804
652.3,26755
652.4,26706
652.5,26654
652.6,26615
652.7,26573
652.8,26523
652.9,26471
653.0,26422
653.1,26373
653.2,26324
653.3,26273
653.4,26229
653.5,26190
653.6,26140
653.7,26091
653.8,26038
653.9,25989
654.0,25950
654.1,25912
654.2,25865
654.3,25816
654.4,25772
654.5,25728
654.6,25695
654.7,25658
654.8,25613
654.9,25572
655.0,25530
655.1,25485
655.2,25442
655.3,25398
655.4,25361
655.5,25325
655.6,25276
655.7,25230
655.8,25183
655.9,25136
656.0,25086
656.1,25043
656.2,25005
656.3,24958
656.4,24910
656.5,24859
656.6,24811
656.7,24772
656.8,24732
656.9,24682
657.0,24635
657.1,24588
657.2,24541
657.3,24491
657.4,24451
657.5,24412
657.6,24364
657.7,24316
657.8,24264
657.9,24215
658.0,24168
658.1,24127
658.2,24089
658.3,24038
658.4,23991
658.5,23944
658.6,23898
658.7,23849
658.8,23809
658.9,23775
659.0,23732
659.1,23686
659.2,23645
659.3,23605
659.4,23575
659.5,23546
659.6,23508
659.7,23474
659.8,23442
659.9,23411
660.0,23379
660.1,23360
660.2,23344
660.3,23321
660.4,23300
660.5,23280
660.6,23264
660.7,23249
660.8,23244
660.9,23241
661.0,23231
661.1,23222
661.2,23212
661.3,23202
661.4,23201
661.5,23199
661.6,23188
661.7,23177
661.8,23164
661.9,23153
662.0,23141
662.1,23137
662.2,23134
662.3,23120
662.4,23108
662.5,23094
662.6,23080
662.7,23065
662.8,23057
662.9,23049
663.0,23031
663.1,23009
663.2,22988
663.3,22964
663.4,22950
663.5,22930
663.6,22900
663.7,22869
663.8,22835
663.9,22800
664.0,22759
664.1,22728
664.2,22694
664.3,22650
664.4,22604
664.5,22552
664.6,22503
664.7,22454
664.8,22403
664.9,22359
665.0,22320
665.1,22270
665.2,22221
665.3,22168
665.4,22118
665.5,22078
665.6,22039
665.7,21989
665.8,21935
665.9,21884
666.0,21833
666.1,21793
666.2,21747
666.3,21692
666.4,21641
666.5,21590
666.6,21539
666.7,21484
666.8,21432
666.9,21391
667.0,21351
667.1,21301
667.2,21255
667.3,21209
667.4,21165
667.5,21118
667.6,21080
667.7,21049
667.8,21008
667.9,20967
668.0,20925
668.1,20885
668.2,20856
668.3,20828
668.4,20790
668.5,20751
668.6,20715
668.7,20679
668.8,20641
668.9,20614
669.0,20588
669.1,20553
669.2,20519
669.3,20482
669.4,20447
669.5,20413
669.6,20386
669.7,20360
669.8,20322
669.9,20286
670.0,20249
670.1,20211
670.2,20171
670.3,20137
670.4,20106
670.5,20065
670.6,20023
670.7,19977
670.8,19934
670.9,19901
671.0,19865
671.1,19820
671.2,19777
671.3,19733
671.4,19690
671.5,19643
671.6,19605
671.7,19568
671.8,19521
671.9,19474
672.0,19421
672.1,19372
672.2,19323
672.3,19281
672.4,19241
672.5,19188
672.6,19138
672.7,19088
672.8,19034
672.9,18993
673.0,18949
673.1,18898
673.2,18847
673.3,18791
673.4,18740
673.5,18687
673.6,18643
673.7,18597
673.8,18541
673.9,18488
674.0,18434
674.1,18380
674.2,18322
674.3,18274
674.4,18228
674.5,18173
674.6,18119
674.7,18061
674.8,18008
674.9,17964
675.0,17916
675.1,17861
675.2,17808
675.3,17755
675.4,17702
675.5,17644
675.6,17599
675.7,17552
675.8,17498
675.9,17443
676.0,17383
676.1,17328
676.2,17273
676.3,17226
676.4,17179
676.5,17122
676.6,17069
676.7,17017
676.8,16961
676.9,16909
677.0,16868
677.1,16828
677.2,16779
677.3,16728
677.4,16682
677.5,16635
677.6,16599
677.7,16558
677.8,16511
677.9,16467
678.0,16423
678.1,16380
678.2,16334
678.3,16290
678.4,16255
678.5,16224
678.6,16184
678.7,16143
678.8,16106
678.9,16070
679.0,16033
679.1,16004
679.2,15980
679.3,15947
679.4,15915
679.5,15881
679.6,15850
679.7,15828
679.8,15807
679.9,15779
680.0,15750
680.1,15725
680.2,15703
680.3,15683
680.4,15671
680.5,15662
680.6,15646
680.7,15633
680.8,15621
680.9,15610
681.0,15601
681.1,15598
681.2,15597
681.3,15585
681.4,15574
681.5,15562
681.6,15549
681.7,15535
681.8,15526
681.9,15520
682.0,15504
682.1,15487
682.2,15469
682.3,15452
682.4,15445
682.5,15436
682.6,15420
682.7,15401
682.8,15385
682.9,15368
683.0,15350
683.1,15340
683.2,15331
683.3,15313
683.4,15294
683.5,15273
683.6,15253
683.7,15232
683.8,15216
683.9,15201
684.0,15174
684.1,15148
684.2,15120
684.3,15090
684.4,15065
684.5,15036
684.6,15000
684.7,14963
684.8,14921
684.9,14880
685.0,14838
685.1,14801
685.2,14761
685.3,14710
685.4,14661
685.5,14612
685.6,14561
685.7,14505
685.8,14457
685.9,14411
686.0,14357
686.1,14303
686.2,14246
686.3,14192
686.4,14147
686.5,14100
686.6,14045
686.7,13988
686.8,13936
686.9,13883
687.0,13826
687.1,13779
687.2,13731
687.3,13677
687.4,13622
687.5,13564
687.6,13510
687.7,13455
687.8,13409
687.9,13363
688.0,13308
688.1,13258
688.2,13209
688.3,13162
688.4,13114
688.5,13076
688.6,13042
688.7,13002
688.8,12962
688.9,12926
689.0,12892
689.1,12868
689.2,12843
689.3,12813
689.4,12786
689.5,12760
689.6,12737
689.7,12712
689.8,12691
689.9,12678
690.0,12669
690.1,12653
690.2,12636
690.3,12621
690.4,12607
690.5,12600
690.6,12593
690.7,12579
690.8,12566
690.9,12553
691.0,12538
691.1,12524
691.2,12518
691.3,12512
691.4,12499
691.5,12484
691.6,12470
691.7,12456
691.8,12442
691.9,12432
692.0,12423
692.1,12406
692.2,12388
692.3,12369
692.4,12348
692.5,12327
692.6,12310
692.7,12293
692.8,12266
692.9,12238
693.0,12208
693.1,12177
693.2,12142
693.3,12112
693.4,12083
693.5,12044
693.6,12003
693.7,11959
693.8,11915
693.9,11878
694.0,11839
694.1,11792
694.2,11741
694.3,11692
694.4,11642
694.5,11592
694.6,11544
694.7,11496
694.8,11443
694.9,11390
695.0,11334
695.1,11281
695.2,11230
695.3,11186
695.4,11143
695.5,11093
695.6,11048
695.7,11004
695.8,10963
695.9,10928
696.0,10894
696.1,10857
696.2,10822
696.3,10789
696.4,10755
696.5,10724
696.6,10700
696.7,10676
696.8,10648
696.9,10620
697.0,10594
697.1,10567
697.2,10544
697.3,10520
697.4,10503
697.5,10488
697.6,10470
697.7,10453
697.8,10438
697.9,10426
698.0,10415
698.1,10406
698.2,10398
698.3,10396
698.4,10398
698.5,10394
698.6,10391
698.7,10389
698.8,10386
698.9,10383
699.0,10381
699.1,10383
699.2,10387
699.3,10385
699.4,10381
699.5,10377
699.6,10373
699.7,10367
699.8,10367
699.9,10367
700.0,10360
700.1,10351
700.2,10343
700.3,10332
700.4,10322
700.5,10310
700.6,10303
700.7,10295
700.8,10280
700.9,10263
701.0,10247
701.1,10228
701.2,10209
701.3,10187
701.4,10171
701.5,10155
701.6,10131
701.7,10108
701.8,10085
701.9,10060
702.0,10036
702.1,10011
702.2,9992
702.3,9974
702.4,9947
702.5,9921
702.6,9894
702.7,9864
702.8,9836
702.9,9804
703.0,9779
703.1,9752
703.2,9717
703.3,9682
703.4,9649
703.5,9614
703.6,9581
703.7,9547
703.8,9519
703.9,9492
704.0,9459
704.1,9428
704.2,9400
704.3,9369
704.4,9342
704.5,9315
704.6,9295
704.7,9276
704.8,9252
704.9,9229
705.0,9209
705.1,9188
705.2,9169
705.3,9151
705.4,9139
705.5,9127
705.6,9110
705.7,9095
705.8,9080
705.9,9066
706.0,9054
706.1,9043
706.2,9038
706.3,9034
706.4,9026
706.5,9020
706.6,9014
706.7,9009
706.8,9005
706.9,9001
707.0,9003
707.1,9006
707.2,9003
707.3,9001
707.4,8999
707.5,8996
707.6,8994
707.7,8991
707.8,8993
707.9,8994
708.0,8989
708.1,8983
708.2,8977
708.3,8969
708.4,8961
708.5,8952
708.6,8947
708.7,8941
708.8,8929
708.9,8917
709.0,8903
709.1,8887
709.2,8871
709.3,8854
709.4,8842
709.5,8829
709.6,8810
709.7,8791
709.8,8771
709.9,8750
710.0,8729
710.1,8707
710.2,8691
710.3,8673
710.4,8649
710.5,8626
710.6,8600
710.7,8574
710.8,8550
710.9,8524
711.0,8505
711.1,8485
711.2,8459
711.3,8436
711.4,8410
711.5,8385
711.6,8362
711.7,8336
711.8,8316
711.9,8296
712.0,8271
712.1,8249
712.2,8225
712.3,8204
712.4,8182
712.5,8162
712.6,8148
712.7,8135
712.8,8117
712.9,8101
713.0,8084
713.1,8069
713.2,8052
713.3,8036
713.4,8024
713.5,8013
713.6,7996
713.7,7981
713.8,7966
713.9,7953
714.0,7939
714.1,7925
714.2,7916
714.3,7907
714.4,7893
714.5,7881
714.6,7868
714.7,7857
714.8,7845
714.9,7833
715.0,7827
715.1,7822
715.2,7813
715.3,7806
715.4,7799
715.5,7792
715.6,7785
715.7,7777
715.8,7773
715.9,7768
716.0,7757
716.1,7746
716.2,7733
716.3,7720
716.4,7705
716.5,7689
716.6,7679
716.7,7668
716.8,7652
716.9,7637
717.0,7620
717.1,7605
717.2,7589
717.3,7572
717.4,7561
717.5,7550
717.6,7535
717.7,7520
717.8,7506
717.9,7493
718.0,7480
718.1,7473
718.2,7464
718.3,7452
718.4,7440
718.5,7428
718.6,7414
718.7,7400
718.8,7383
718.9,7370
719.0,7355
719.1,7333
719.2,7312
719.3,7290
719.4,7267
719.5,7246
719.6,7223
719.7,7203
719.8,7188
719.9,7174
720.0,7159
720.1,7145
720.2,7133
720.3,7124
720.4,7116
720.5,7109
720.6,7108
720.7,7108
720.8,7104
720.9,7102
721.0,7099
721.1,7097
721.2,7094
721.3,7090
721.4,7089
721.5,7088
721.6,7083
721.7,7077
721.8,7071
721.9,7065
722.0,7059
722.1,7058
722.2,7055
722.3,7050
722.4,7047
722.5,7043
722.6,7040
722.7,7037
722.8,7036
722.9,7038
723.0,7040
723.1,7037
723.2,7034
723.3,7031
723.4,7027
723.5,7023
723.6,7019
723.7,7014
723.8,7011
723.9,7009
724.0,7001
724.1,6994
724.2,6986
724.3,6977
724.4,6967
724.5,6956
724.6,6947
724.7,6936
724.8,6921
724.9,6904
725.0,6885
725.1,6867
725.2,6847
725.3,6827
725.4,6810
725.5,6793
725.6,6773
725.7,6752
725.8,6730
725.9,6711
726.0,6691
726.1,6675
726.2,6658
726.3,6637
726.4,6617
726.5,6596
726.6,6575
726.7,6555
726.8,6534
726.9,6518
727.0,6500
727.1,6478
727.2,6457
727.3,6435
727.4,6412
727.5,6391
727.6,6369
727.7,6348
727.8,6331
727.9,6315
728.0,6298
728.1,6281
728.2,6266
728.3,6251
728.4,6236
728.5,6224
728.6,6215
728.7,6206
728.8,6193
728.9,6180
729.0,6168
729.1,6155
729.2,6142
729.3,6130
729.4,6120
729.5,6111
729.6,6098
729.7,6086
729.8,6075
729.9,6062
730.0,6050
730.1,6040
730.2,6029
730.3,6016
730.4,6002
730.5,5987
730.6,5975
730.7,5961
730.8,5949
730.9,5941
731.0,5934
731.1,5926
731.2,5919
731.3,5913
731.4,5908
731.5,5905
731.6,5902
731.7,5901
731.8,5904
731.9,5908
732.0,5908
732.1,5907
732.2,5907
732.3,5906
732.4,5905
732.5,5904
732.6,5905
732.7,5907
732.8,5904
732.9,5902
733.0,5899
733.1,5898
733.2,5898
733.3,5899
733.4,5904
733.5,5911
733.6,5915
733.7,5919
733.8,5924
733.9,5929
734.0,5935
734.1,5942
734.2,5949
734.3,5952
734.4,5952
734.5,5952
734.6,5949
734.7,5946
734.8,5942
734.9,5940
735.0,5937
735.1,5931
735.2,5924
735.3,5917
735.4,5910
735.5,5905
735.6,5900
735.7,5899
735.8,5897
735.9,5893
736.0,5888
736.1,5882
736.2,5877
736.3,5871
736.4,5864
736.5,5859
736.6,5853
736.7,5842
736.8,5832
736.9,5821
737.0,5811
737.1,5799
737.2,5788
737.3,5780
737.4,5771
737.5,5759
737.6,5749
737.7,5738
737.8,5727
737.9,5715
738.0,5703
738.1,5693
738.2,5683
738.3,5670
738.4,5656
738.5,5642
738.6,5629
738.7,5614
738.8,5600
738.9,5589
739.0,5579
739.1,5566
739.2,5553
739.3,5541
739.4,5531
739.5,5521
739.6,5516
739.7,5510
739.8,5504
739.9,5499
740.0,5495
740.1,5491
740.2,5488
740.3,5483
740.4,5480
740.5,5476
740.6,5468
740.7,5460
740.8,5451
740.9,5441
741.0,5430
741.1,5419
741.2,5408
741.3,5401
741.4,5394
741.5,5385
741.6,5377
741.7,5370
741.8,5363
741.9,5355
742.0,5347
742.1,5343
742.2,5338
742.3,5331
742.4,5323
742.5,5315
742.6,5309
742.7,5301
742.8,5293
742.9,5288
743.0,5283
743.1,5276
743.2,5268
743.3,5258
743.4,5249
743.5,5240
743.6,5230
743.7,5224
743.8,5218
743.9,5210
744.0,5203
744.1,5195
744.2,5188
744.3,5183
744.4,5179
744.5,5177
744.6,5176
744.7,5171
744.8,5165
744.9,5160
745.0,5154
745.1,5147
745.2,5140
745.3,5136
745.4,5131
745.5,5124
745.6,5116
745.7,5110
745.8,5104
745.9,5100
746.0,5095
746.1,5095
746.2,5096
746.3,5094
746.4,5092
746.5,5091
746.6,5091
746.7,5092
746.8,5094
746.9,5100
747.0,5105
747.1,5108
747.2,5112
747.3,5116
747.4,5122
747.5,5128
747.6,5134
747.7,5140
747.8,5148
747.9,5157
748.0,5164
748.1,5171
748.2,5180
748.3,5189
748.4,5198
748.5,5207
748.6,5219
748.7,5233
748.8,5244
748.9,5254
749.0,5265
749.1,5274
749.2,5281
749.3,5288
749.4,5297
749.5,5305
749.6,5310
749.7,5314
749.8,5319
749.9,5323
750.0,5328
750.1,5334
750.2,5341
750.3,5344
750.4,5346
750.5,5348
750.6,5349
750.7,5348
750.8,5345
750.9,5343
751.0,5340
751.1,5333
751.2,5325
751.3,5316
751.4,5306
751.5,5293
751.6,5279
751.7,5265
751.8,5249
751.9,5235
752.0,5220
752.1,5202
752.2,5183
752.3,5163
752.4,5146
752.5,5128
752.6,5110
752.7,5097
752.8,5082
752.9,5065
753.0,5048
753.1,5033
753.2,5016
753.3,4999
753.4,4983
753.5,4966
753.6,4951
753.7,4937
753.8,4921
753.9,4905
754.0,4889
754.1,4875
754.2,4861
754.3,4847
754.4,4836
754.5,4826
754.6,4816
754.7,4806
754.8,4797
754.9,4790
755.0,4783
755.1,4778
755.2,4773
755.3,4770
755.4,4767
755.5,4762
755.6,4757
755.7,4752
755.8,4744
755.9,4738
756.0,4730
756.1,4724
756.2,4718
756.3,4711
756.4,4703
756.5,4695
756.6,4687
756.7,4678
756.8,4669
756.9,4663
757.0,4656
757.1,4646
757.2,4634
757.3,4622
757.4,4611
757.5,4599
757.6,4587
757.7,4576
757.8,4564
757.9,4553
758.0,4544
758.1,4533
758.2,4521
758.3,4510
758.4,4500
758.5,4489
758.6,4478
758.7,4470
758.8,4462
758.9,4453
759.0,4444
759.1,4436
759.2,4428
759.3,4420
759.4,4413
759.5,4407
759.6,4403
759.7,4399
759.8,4394
759.9,4388
760.0,4383
760.1,4378
760.2,4373
760.3,4368
760.4,4367
760.5,4365
760.6,4362
760.7,4359
760.8,4356
760.9,4353
761.0,4350
761.1,4347
761.2,4344
761.3,4342
761.4,4340
761.5,4336
761.6,4331
761.7,4326
761.8,4321
761.9,4316
762.0,4312
762.1,4309
762.2,4306
762.3,4301
762.4,4296
762.5,4291
762.6,4285
762.7,4279
762.8,4272
762.9,4266
763.0,4260
763.1,4255
763.2,4248
763.3,4240
763.4,4233
763.5,4226
763.6,4217
763.7,4209
763.8,4199
763.9,4189
764.0,4179
764.1,4166
764.2,4149
764.3,4133
764.4,4113
764.5,4091
764.6,4072
764.7,4051
764.8,4026
764.9,4002
765.0,3978
765.1,3951
765.2,3924
765.3,3898
765.4,3871
765.5,3844
765.6,3819
765.7,3795
765.8,3767
765.9,3741
766.0,3714
766.1,3686
766.2,3659
766.3,3630
766.4,3599
766.5,3569
766.6,3535
766.7,3497
766.8,3457
766.9,3418
767.0,3374
767.1,3328
767.2,3286
767.3,3244
767.4,3200
767.5,3160
767.6,3118
767.7,3079
767.8,3045
767.9,3012
768.0,2981
768.1,2954
768.2,2931
768.3,2907
768.4,2887
768.5,2871
768.6,2858
768.7,2849
768.8,2842
768.9,2841
769.0,2842
769.1,2846
769.2,2854
769.3,2866
769.4,2880
769.5,2898
769.6,2920
769.7,2944
769.8,2971
769.9,3002
770.0,3036
770.1,3070
770.2,3111
770.3,3152
770.4,3199
770.5,3249
770.6,3301
770.7,3355
770.8,3412
770.9,3470
771.0,3526
771.1,3587
771.2,3650
771.3,3711
771.4,3775
771.5,3844
771.6,3910
771.7,3972
771.8,4040
771.9,4102
772.0,4165
772.1,4228
772.2,4287
772.3,4343
772.4,4396
772.5,4445
772.6,4490
772.7,4528
772.8,4566
772.9,4601
773.0,4632
773.1,4661
773.2,4688
773.3,4711
773.4,4731
773.5,4748
773.6,4763
773.7,4773
773.8,4782
773.9,4789
774.0,4794
774.1,4799
774.2,4803
774.3,4803
774.4,4803
774.5,4800
774.6,4795
774.7,4789
774.8,4781
774.9,4772
775.0,4762
775.1,4747
775.2,4732
775.3,4715
775.4,4698
775.5,4682
775.6,4666
775.7,4651
775.8,4636
775.9,4624
776.0,4612
776.1,4599
776.2,4587
776.3,4576
776.4,4563
776.5,4552
776.6,4542
776.7,4534
776.8,4530
776.9,4527
777.0,4523
777.1,4520
777.2,4518
777.3,4518
777.4,4518
777.5,4518
777.6,4518
777.7,4519
777.8,4521
777.9,4521
778.0,4522
778.1,4522
778.2,4523
778.3,4525
778.4,4529
778.5,4532
778.6,4538
778.7,4542
778.8,4544
778.9,4544
779.0,4545
779.1,4545
779.2,4544
779.3,4542
779.4,4539
779.5,4536
779.6,4533
779.7,4531
779.8,4525
779.9,4519
780.0,4510
780.1,4499
780.2,4487
780.3,4475
780.4,4463
780.5,4450
780.6,4434
780.7,4418
780.8,4403
780.9,4387
781.0,4372
781.1,4357
781.2,4341
781.3,4325
781.4,4311
781.5,4296
781.6,4278
781.7,4259
781.8,4240
781.9,4223
782.0,4205
782.1,4187
782.2,4172
782.3,4159
782.4,4148
782.5,4135
782.6,4123
782.7,4112
782.8,4101
782.9,4092
783.0,4082
783.1,4074
783.2,4066
783.3,4061
783.4,4058
783.5,4056
783.6,4054
783.7,4055
783.8,4059
783.9,4064
784.0,4071
784.1,4082
784.2,4095
784.3,4107
784.4,4121
784.5,4136
784.6,4152
784.7,4169
784.8,4186
784.9,4204
785.0,4222
785.1,4243
785.2,4264
785.3,4281
785.4,4297
785.5,4314
785.6,4330
785.7,4346
785.8,4362
785.9,4379
786.0,4395
786.1,4411
786.2,4428
786.3,4446
786.4,4463
786.5,4481
786.6,4499
786.7,4516
786.8,4532
786.9,4547
787.0,4561
787.1,4572
787.2,4579
787.3,4584
787.4,4587
787.5,4588
787.6,4587
787.7,4583
787.8,4578
787.9,4573
788.0,4569
788.1,4561
788.2,4552
788.3,4542
788.4,4530
788.5,4518
788.6,4505
788.7,4491
788.8,4478
788.9,4465
789.0,4449
789.1,4431
789.2,4411
789.3,4392
789.4,4371
789.5,4350
789.6,4329
789.7,4306
789.8,4280
789.9,4254
790.0,4229
790.1,4199
790.2,4167
790.3,4133
790.4,4097
790.5,4062
790.6,4028
790.7,3991
790.8,3952
790.9,3912
791.0,3877
791.1,3839
791.2,3804
791.3,3770
791.4,3738
791.5,3711
791.6,3685
791.7,3658
791.8,3633
791.9,3609
792.0,3588
792.1,3565
792.2,3542
792.3,3520
792.4,3501
792.5,3483
792.6,3466
792.7,3448
792.8,3430
792.9,3415
793.0,3401
793.1,3391
793.2,3383
793.3,3377
793.4,3376
793.5,3378
793.6,3383
793.7,3392
793.8,3405
793.9,3422
794.0,3444
794.1,3467
794.2,3493
794.3,3524
794.4,3557
794.5,3587
794.6,3616
794.7,3646
794.8,3678
794.9,3709
795.0,3739
795.1,3769
795.2,3799
795.3,3830
795.4,3861
795.5,3889
795.6,3915
795.7,3942
795.8,3967
795.9,3988
796.0,4007
796.1,4024
796.2,4038
796.3,4052
796.4,4064
796.5,4071
796.6,4077
796.7,4083
796.8,4088
796.9,4094
797.0,4097
797.1,4100
797.2,4102
797.3,4104
797.4,4104
797.5,4099
797.6,4090
797.7,4079
797.8,4064
797.9,4046
798.0,4026
798.1,4003
798.2,3977
798.3,3951
798.4,3924
798.5,3896
798.6,3864
798.7,3833
798.8,3799
798.9,3764
799.0,3730
799.1,3697
799.2,3667
799.3,3638
799.4,3615
799.5,3596
799.6,3579
799.7,3565
799.8,3553
799.9,3542
800.0,3533
