nm,INT
500.0,58
500.1,56
500.2,55
500.3,54
500.4,53
500.5,52
500.6,51
500.7,50
500.8,49
500.9,48
501.0,47
501.1,47
501.2,46
501.3,45
501.4,44
501.5,43
501.6,42
501.7,40
501.8,39
501.9,38
502.0,37
502.1,35
502.2,34
502.3,33
502.4,31
502.5,30
502.6,29
502.7,28
502.8,27
502.9,26
503.0,26
503.1,25
503.2,25
503.3,25
503.4,25
503.5,26
503.6,26
503.7,27
503.8,28
503.9,29
504.0,30
504.1,32
504.2,34
504.3,35
504.4,37
504.5,40
504.6,42
504.7,44
504.8,47
504.9,49
505.0,52
505.1,54
505.2,56
505.3,59
505.4,61
505.5,63
505.6,65
505.7,67
505.8,68
505.9,69
506.0,71
506.1,72
506.2,73
506.3,74
506.4,75
506.5,75
506.6,76
506.7,77
506.8,77
506.9,78
507.0,78
507.1,79
507.2,79
507.3,79
507.4,79
507.5,79
507.6,78
507.7,78
507.8,77
507.9,76
508.0,75
508.1,75
508.2,73
508.3,72
508.4,71
508.5,69
508.6,68
508.7,66
508.8,64
508.9,62
509.0,60
509.1,57
509.2,54
509.3,52
509.4,49
509.5,46
509.6,43
509.7,40
509.8,37
509.9,34
510.0,31
510.1,29
510.2,26
510.3,24
510.4,21
510.5,19
510.6,17
510.7,16
510.8,14
510.9,13
511.0,12
511.1,11
511.2,10
511.3,9
511.4,8
511.5,7
511.6,7
511.7,6
511.8,5
511.9,5
512.0,4
512.1,4
512.2,3
512.3,3
512.4,3
512.5,3
512.6,4
512.7,4
512.8,5
512.9,6
513.0,7
513.1,8
513.2,9
513.3,11
513.4,12
513.5,13
513.6,15
513.7,16
513.8,17
513.9,18
514.0,19
514.1,21
514.2,22
514.3,23
514.4,24
514.5,25
514.6,26
514.7,27
514.8,28
514.9,28
515.0,29
515.1,29
515.2,29
515.3,30
515.4,30
515.5,30
515.6,30
515.7,31
515.8,31
515.9,32
516.0,33
516.1,34
516.2,35
516.3,36
516.4,38
516.5,40
516.6,42
516.7,44
516.8,46
516.9,49
517.0,51
517.1,54
517.2,56
517.3,59
517.4,61
517.5,64
517.6,66
517.7,68
517.8,71
517.9,73
518.0,76
518.1,78
518.2,81
518.3,84
518.4,87
518.5,90
518.6,93
518.7,97
518.8,100
518.9,104
519.0,107
519.1,111
519.2,115
519.3,119
519.4,123
519.5,127
519.6,131
519.7,136
519.8,140
519.9,144
520.0,149
520.1,153
520.2,158
520.3,162
520.4,166
520.5,171
520.6,174
520.7,178
520.8,182
520.9,186
521.0,189
521.1,192
521.2,194
521.3,197
521.4,199
521.5,200
521.6,202
521.7,203
521.8,205
521.9,206
522.0,207
522.1,209
522.2,210
522.3,212
522.4,213
522.5,215
522.6,216
522.7,218
522.8,220
522.9,221
523.0,222
523.1,224
523.2,225
523.3,226
523.4,227
523.5,227
523.6,228
523.7,229
523.8,230
523.9,231
524.0,232
524.1,233
524.2,235
524.3,236
524.4,238
524.5,240
524.6,242
524.7,245
524.8,248
524.9,251
525.0,255
525.1,258
525.2,262
525.3,266
525.4,271
525.5,275
525.6,280
525.7,285
525.8,289
525.9,294
526.0,300
526.1,305
526.2,311
526.3,317
526.4,323
526.5,330
526.6,337
526.7,344
526.8,351
526.9,359
527.0,367
527.1,376
527.2,385
527.3,394
527.4,403
527.5,412
527.6,422
527.7,432
527.8,442
527.9,453
528.0,464
528.1,476
528.2,487
528.3,498
528.4,510
528.5,523
528.6,536
528.7,549
528.8,563
528.9,576
529.0,589
529.1,603
529.2,617
529.3,631
529.4,645
529.5,660
529.6,675
529.7,690
529.8,704
529.9,719
530.0,734
530.1,750
530.2,767
530.3,783
530.4,799
530.5,816
530.6,832
530.7,848
530.8,864
530.9,880
531.0,896
531.1,911
531.2,926
531.3,941
531.4,955
531.5,969
531.6,983
531.7,996
531.8,1010
531.9,1023
532.0,1036
532.1,1048
532.2,1060
532.3,1072
532.4,1083
532.5,1094
532.6,1104
532.7,1115
532.8,1124
532.9,1133
533.0,1142
533.1,1151
533.2,1159
533.3,1166
533.4,1172
533.5,1178
533.6,1183
533.7,1187
533.8,1191
533.9,1194
534.0,1197
534.1,1200
534.2,1202
534.3,1205
534.4,1208
534.5,1210
534.6,1213
534.7,1216
534.8,1218
534.9,1221
535.0,1224
535.1,1226
535.2,1229
535.3,1231
535.4,1234
535.5,1238
535.6,1241
535.7,1245
535.8,1250
535.9,1255
536.0,1261
536.1,1267
536.2,1274
536.3,1281
536.4,1289
536.5,1297
536.6,1306
536.7,1316
536.8,1325
536.9,1335
537.0,1345
537.1,1354
537.2,1365
537.3,1375
537.4,1386
537.5,1397
537.6,1407
537.7,1417
537.8,1428
537.9,1440
538.0,1451
538.1,1462
538.2,1474
538.3,1487
538.4,1500
538.5,1513
538.6,1526
538.7,1540
538.8,1555
538.9,1569
539.0,1585
539.1,1600
539.2,1614
539.3,1629
539.4,1644
539.5,1658
539.6,1672
539.7,1686
539.8,1699
539.9,1712
540.0,1725
540.1,1737
540.2,1750
540.3,1762
540.4,1774
540.5,1787
540.6,1799
540.7,1812
540.8,1825
540.9,1837
541.0,1850
541.1,1863
541.2,1875
541.3,1888
541.4,1900
541.5,1911
541.6,1922
541.7,1933
541.8,1943
541.9,1953
542.0,1963
542.1,1972
542.2,1981
542.3,1990
542.4,1999
542.5,2008
542.6,2017
542.7,2026
542.8,2035
542.9,2044
543.0,2053
543.1,2063
543.2,2074
543.3,2084
543.4,2094
543.5,2105
543.6,2116
543.7,2126
543.8,2135
543.9,2145
544.0,2155
544.1,2164
544.2,2173
544.3,2182
544.4,2190
544.5,2199
544.6,2208
544.7,2218
544.8,2229
544.9,2240
545.0,2252
545.1,2264
545.2,2276
545.3,2289
545.4,2302
545.5,2315
545.6,2329
545.7,2342
545.8,2356
545.9,2369
546.0,2383
546.1,2396
546.2,2410
546.3,2424
546.4,2438
546.5,2453
546.6,2469
546.7,2485
546.8,2501
546.9,2518
547.0,2535
547.1,2554
547.2,2573
547.3,2593
547.4,2613
547.5,2634
547.6,2656
547.7,2678
547.8,2702
547.9,2726
548.0,2749
548.1,2773
548.2,2796
548.3,2822
548.4,2847
548.5,2871
548.6,2895
548.7,2920
548.8,2945
548.9,2971
549.0,2998
549.1,3025
549.2,3053
549.3,3081
549.4,3110
549.5,3139
549.6,3169
549.7,3198
549.8,3227
549.9,3255
550.0,3282
550.1,3308
550.2,3336
550.3,3362
550.4,3388
550.5,3414
550.6,3439
550.7,3465
550.8,3492
550.9,3519
551.0,3545
551.1,3573
551.2,3600
551.3,3628
551.4,3657
551.5,3686
551.6,3715
551.7,3744
551.8,3773
551.9,3803
552.0,3833
552.1,3865
552.2,3895
552.3,3926
552.4,3957
552.5,3988
552.6,4021
552.7,4055
552.8,4090
552.9,4122
553.0,4156
553.1,4191
553.2,4226
553.3,4264
553.4,4303
553.5,4342
553.6,4382
553.7,4423
553.8,4464
553.9,4508
554.0,4551
554.1,4594
554.2,4638
554.3,4681
554.4,4725
554.5,4770
554.6,4814
554.7,4858
554.8,4903
554.9,4949
555.0,4996
555.1,5046
555.2,5097
555.3,5147
555.4,5198
555.5,5251
555.6,5306
555.7,5361
555.8,5415
555.9,5470
556.0,5525
556.1,5579
556.2,5634
556.3,5690
556.4,5747
556.5,5803
556.6,5858
556.7,5913
556.8,5968
556.9,6024
557.0,6081
557.1,6135
557.2,6195
557.3,6249
557.4,6302
557.5,6358
557.6,6413
557.7,6467
557.8,6521
557.9,6574
558.0,6627
558.1,6682
558.2,6737
558.3,6790
558.4,6842
558.5,6893
558.6,6944
558.7,6996
558.8,7047
558.9,7097
559.0,7146
559.1,7195
559.2,7244
559.3,7296
559.4,7347
559.5,7398
559.6,7449
559.7,7501
559.8,7553
559.9,7607
560.0,7661
560.1,7713
560.2,7765
560.3,7816
560.4,7868
560.5,7921
560.6,7975
560.7,8025
560.8,8077
560.9,8128
561.0,8180
561.1,8236
561.2,8292
561.3,8347
561.4,8402
561.5,8459
561.6,8522
561.7,8583
561.8,8646
561.9,8711
562.0,8774
562.1,8839
562.2,8905
562.3,8973
562.4,9044
562.5,9116
562.6,9187
562.7,9259
562.8,9331
562.9,9407
563.0,9483
563.1,9557
563.2,9632
563.3,9707
563.4,9784
563.5,9861
563.6,9943
563.7,10026
563.8,10107
563.9,10190
564.0,10274
564.1,10363
564.2,10452
564.3,10541
564.4,10630
564.5,10720
564.6,10810
564.7,10902
564.8,10996
564.9,11092
565.0,11185
565.1,11278
565.2,11372
565.3,11466
565.4,11563
565.5,11662
565.6,11758
565.7,11854
565.8,11950
565.9,12053
566.0,12156
566.1,12255
566.2,12350
566.3,12446
566.4,12541
566.5,12635
566.6,12733
566.7,12830
566.8,12923
566.9,13017
567.0,13110
567.1,13203
567.2,13299
567.3,13395
567.4,13487
567.5,13580
567.6,13673
567.7,13765
567.8,13862
567.9,13958
568.0,14052
568.1,14146
568.2,14240
568.3,14334
568.4,14433
568.5,14531
568.6,14626
568.7,14721
568.8,14815
568.9,14910
569.0,15008
569.1,15106
569.2,15199
569.3,15293
569.4,15387
569.5,15481
569.6,15579
569.7,15678
569.8,15773
569.9,15869
570.0,15966
570.1,16064
570.2,16166
570.3,16273
570.4,16379
570.5,16479
570.6,16579
570.7,16681
570.8,16783
570.9,16889
571.0,16998
571.1,17103
571.2,17208
571.3,17314
571.4,17426
571.5,17536
571.6,17644
571.7,17753
571.8,17861
571.9,17970
572.0,18078
572.1,18190
572.2,18303
572.3,18412
572.4,18520
572.5,18629
572.6,18742
572.7,18853
572.8,18961
572.9,19069
573.0,19176
573.1,19283
573.2,19390
573.3,19500
573.4,19611
573.5,19718
573.6,19824
573.7,19930
573.8,20036
573.9,20146
574.0,20258
574.1,20364
574.2,20470
574.3,20576
574.4,20686
574.5,20795
574.6,20900
574.7,21005
574.8,21118
574.9,21221
575.0,21324
575.1,21431
575.2,21539
575.3,21641
575.4,21744
575.5,21847
575.6,21950
575.7,22058
575.8,22167
575.9,22270
576.0,22374
576.1,22478
576.2,22583
576.3,22693
576.4,22803
576.5,22908
576.6,23014
576.7,23120
576.8,23226
576.9,23339
577.0,23452
577.1,23560
577.2,23661
577.3,23770
577.4,23881
577.5,23992
577.6,24104
577.7,24217
577.8,24323
577.9,24443
578.0,24560
578.1,24670
578.2,24788
578.3,24899
578.4,25024
578.5,25150
578.6,25270
578.7,25384
578.8,25507
578.9,25631
579.0,25755
579.1,25879
579.2,26005
579.3,26141
579.4,26267
579.5,26392
579.6,26525
579.7,26663
579.8,26798
579.9,26924
580.0,27052
580.1,27179
580.2,27314
580.3,27453
580.4,27588
580.5,27715
580.6,27841
580.7,27978
580.8,28104
580.9,28239
581.0,28371
581.1,28499
581.2,28632
581.3,28756
581.4,28879
581.5,29010
581.6,29146
581.7,29276
581.8,29398
581.9,29520
582.0,29653
582.1,29773
582.2,29893
582.3,30022
582.4,30154
582.5,30281
582.6,30398
582.7,30515
582.8,30631
582.9,30754
583.0,30883
583.1,31007
583.2,31122
583.3,31244
583.4,31355
583.5,31466
583.6,31588
583.7,31712
583.8,31827
583.9,31937
584.0,32046
584.1,32154
584.2,32270
584.3,32380
584.4,32496
584.5,32616
584.6,32724
584.7,32840
584.8,32946
584.9,33051
585.0,33167
585.1,33286
585.2,33395
585.3,33498
585.4,33600
585.5,33709
585.6,33812
585.7,33924
585.8,34036
585.9,34138
586.0,34247
586.1,34347
586.2,34448
586.3,34549
586.4,34666
586.5,34787
586.6,34890
586.7,34992
586.8,35095
586.9,35206
587.0,35314
587.1,35430
587.2,35554
587.3,35670
587.4,35778
587.5,35886
587.6,35995
587.7,36111
587.8,36237
587.9,36362
588.0,36472
588.1,36581
588.2,36699
588.3,36809
588.4,36931
588.5,37054
588.6,37164
588.7,37281
588.8,37388
588.9,37495
589.0,37601
589.1,37724
589.2,37851
589.3,37955
589.4,38059
589.5,38172
589.6,38276
589.7,38378
589.8,38492
589.9,38612
590.0,38720
590.1,38820
590.2,38919
590.3,39018
590.4,39137
590.5,39251
590.6,39346
590.7,39440
590.8,39532
590.9,39631
591.0,39723
591.1,39827
591.2,39933
591.3,40025
591.4,40112
591.5,40197
591.6,40281
591.7,40370
591.8,40471
591.9,40568
592.0,40649
592.1,40729
592.2,40817
592.3,40897
592.4,40993
592.5,41084
592.6,41165
592.7,41249
592.8,41327
592.9,41407
593.0,41493
593.1,41594
593.2,41689
593.3,41772
593.4,41857
593.5,41951
593.6,42040
593.7,42130
593.8,42237
593.9,42350
594.0,42452
594.1,42549
594.2,42649
594.3,42750
594.4,42859
594.5,42984
594.6,43106
594.7,43214
594.8,43324
594.9,43444
595.0,43557
595.1,43688
595.2,43820
595.3,43941
595.4,44057
595.5,44173
595.6,44290
595.7,44417
595.8,44539
595.9,44674
596.0,44816
596.1,44940
596.2,45076
596.3,45201
596.4,45325
596.5,45467
596.6,45612
596.7,45744
596.8,45866
596.9,45987
597.0,46114
597.1,46232
597.2,46365
597.3,46496
597.4,46610
597.5,46729
597.6,46837
597.7,46942
597.8,47047
597.9,47170
598.0,47294
598.1,47392
598.2,47488
598.3,47580
598.4,47678
598.5,47769
598.6,47871
598.7,47978
598.8,48062
598.9,48150
599.0,48230
599.1,48308
599.2,48389
599.3,48481
599.4,48575
599.5,48644
599.6,48712
599.7,48783
599.8,48848
599.9,48929
600.0,49009
600.1,49070
600.2,49133
600.3,49190
600.4,49246
600.5,49302
600.6,49377
600.7,49453
600.8,49503
600.9,49552
601.0,49604
601.1,49650
601.2,49695
601.3,49754
601.4,49820
601.5,49864
601.6,49904
601.7,49944
601.8,49985
601.9,50050
602.0,50110
602.1,50151
602.2,50191
602.3,50232
602.4,50277
602.5,50320
602.6,50382
602.7,50444
602.8,50488
602.9,50535
603.0,50578
603.1,50621
603.2,50666
603.3,50728
603.4,50788
603.5,50827
603.6,50865
603.7,50906
603.8,50943
603.9,51003
604.0,51056
604.1,51095
604.2,51138
604.3,51179
604.4,51223
604.5,51270
604.6,51342
604.7,51411
604.8,51462
604.9,51515
605.0,51572
605.1,51626
605.2,51681
605.3,51755
605.4,51831
605.5,51888
605.6,51943
605.7,51997
605.8,52052
605.9,52109
606.0,52185
606.1,52258
606.2,52310
606.3,52361
606.4,52416
606.5,52467
606.6,52539
606.7,52604
606.8,52654
606.9,52706
607.0,52755
607.1,52803
607.2,52854
607.3,52902
607.4,52966
607.5,53035
607.6,53081
607.7,53129
607.8,53170
607.9,53211
608.0,53270
608.1,53330
608.2,53370
608.3,53407
608.4,53443
608.5,53478
608.6,53514
608.7,53568
608.8,53620
608.9,53650
609.0,53680
609.1,53704
609.2,53726
609.3,53745
609.4,53782
609.5,53820
609.6,53834
609.7,53846
609.8,53858
609.9,53869
610.0,53881
610.1,53909
610.2,53946
610.3,53958
610.4,53971
610.5,53983
610.6,53995
610.7,54028
610.8,54060
610.9,54073
611.0,54084
611.1,54097
611.2,54109
611.3,54120
611.4,54152
611.5,54184
611.6,54196
611.7,54208
611.8,54220
611.9,54232
612.0,54245
612.1,54278
612.2,54314
612.3,54329
612.4,54344
612.5,54360
612.6,54380
612.7,54400
612.8,54437
612.9,54482
613.0,54504
613.1,54524
613.2,54544
613.3,54563
613.4,54605
613.5,54642
613.6,54658
613.7,54672
613.8,54686
613.9,54701
614.0,54714
614.1,54746
614.2,54779
614.3,54790
614.4,54803
614.5,54813
614.6,54823
614.7,54831
614.8,54858
614.9,54886
615.0,54889
615.1,54890
615.2,54889
615.3,54885
615.4,54903
615.5,54913
615.6,54903
615.7,54892
615.8,54880
615.9,54867
616.0,54854
616.1,54861
616.2,54865
616.3,54851
616.4,54838
616.5,54825
616.6,54811
616.7,54798
616.8,54805
616.9,54812
617.0,54799
617.1,54788
617.2,54777
617.3,54766
617.4,54755
617.5,54766
617.6,54778
617.7,54772
617.8,54767
617.9,54762
618.0,54760
618.1,54782
618.2,54799
618.3,54800
618.4,54802
618.5,54805
618.6,54810
618.7,54815
618.8,54822
618.9,54847
619.0,54880
619.1,54890
619.2,54901
619.3,54913
619.4,54926
619.5,54959
619.6,54994
619.7,55009
619.8,55022
619.9,55036
620.0,55050
620.1,55065
620.2,55101
620.3,55135
620.4,55150
620.5,55164
620.6,55178
620.7,55191
620.8,55203
620.9,55233
621.0,55266
621.1,55275
621.2,55283
621.3,55288
621.4,55291
621.5,55291
621.6,55305
621.7,55324
621.8,55316
621.9,55304
622.0,55290
622.1,55273
622.2,55272
622.3,55267
622.4,55237
622.5,55206
622.6,55173
622.7,55137
622.8,55096
622.9,55073
623.0,55049
623.1,55003
623.2,54952
623.3,54904
623.4,54856
623.5,54807
623.6,54773
623.7,54741
623.8,54689
623.9,54636
624.0,54582
624.1,54523
624.2,54465
624.3,54423
624.4,54386
624.5,54325
624.6,54258
624.7,54194
624.8,54131
624.9,54084
625.0,54035
625.1,53972
625.2,53910
625.3,53849
625.4,53785
625.5,53727
625.6,53691
625.7,53657
625.8,53606
625.9,53553
626.0,53506
626.1,53461
626.2,53417
626.3,53389
626.4,53366
626.5,53327
626.6,53288
626.7,53251
626.8,53211
626.9,53196
627.0,53176
627.1,53140
627.2,53104
627.3,53072
627.4,53039
627.5,53007
627.6,52994
627.7,52979
627.8,52949
627.9,52920
628.0,52891
628.1,52859
628.2,52830
628.3,52818
628.4,52806
628.5,52774
628.6,52739
628.7,52705
628.8,52670
628.9,52632
629.0,52612
629.1,52592
629.2,52553
629.3,52513
629.4,52470
629.5,52430
629.6,52411
629.7,52386
629.8,52344
629.9,52299
630.0,52256
630.1,52212
630.2,52168
630.3,52120
630.4,52086
630.5,52058
630.6,52006
630.7,51953
630.8,51893
630.9,51836
631.0,51795
631.1,51752
631.2,51687
631.3,51625
631.4,51562
631.5,51499
631.6,51431
631.7,51384
631.8,51339
631.9,51277
632.0,51215
632.1,51149
632.2,51087
632.3,51027
632.4,50981
632.5,50939
632.6,50873
632.7,50813
632.8,50752
632.9,50686
633.0,50622
633.1,50574
633.2,50531
633.3,50468
633.4,50400
633.5,50338
633.6,50276
633.7,50231
633.8,50185
633.9,50121
634.0,50061
634.1,50003
634.2,49946
634.3,49886
634.4,49846
634.5,49809
634.6,49757
634.7,49706
634.8,49653
634.9,49604
635.0,49556
635.1,49523
635.2,49493
635.3,49449
635.4,49406
635.5,49364
635.6,49321
635.7,49280
635.8,49254
635.9,49235
636.0,49198
636.1,49159
636.2,49124
636.3,49089
636.4,49071
636.5,49053
636.6,49020
636.7,48989
636.8,48958
636.9,48925
637.0,48895
637.1,48883
637.2,48871
637.3,48843
637.4,48813
637.5,48786
637.6,48758
637.7,48731
637.8,48717
637.9,48706
638.0,48678
638.1,48650
638.2,48621
638.3,48589
638.4,48576
638.5,48559
638.6,48529
638.7,48497
638.8,48461
638.9,48427
639.0,48392
639.1,48372
639.2,48349
639.3,48312
639.4,48275
639.5,48237
639.6,48193
639.7,48150
639.8,48123
639.9,48094
640.0,48047
640.1,47994
640.2,47943
640.3,47890
640.4,47854
640.5,47810
640.6,47752
640.7,47695
640.8,47638
640.9,47575
641.0,47517
641.1,47477
641.2,47432
641.3,47373
641.4,47310
641.5,47251
641.6,47193
641.7,47134
641.8,47071
641.9,47022
642.0,46980
642.1,46920
642.2,46860
642.3,46796
642.4,46736
642.5,46692
642.6,46648
642.7,46588
642.8,46525
642.9,46467
643.0,46411
643.1,46354
643.2,46315
643.3,46279
643.4,46229
643.5,46180
643.6,46129
643.7,46083
643.8,46038
643.9,46006
644.0,45977
644.1,45928
644.2,45882
644.3,45835
644.4,45790
644.5,45742
644.6,45708
644.7,45681
644.8,45637
644.9,45589
645.0,45547
645.1,45506
645.2,45479
645.3,45451
645.4,45406
645.5,45364
645.6,45322
645.7,45278
645.8,45231
645.9,45199
646.0,45167
646.1,45119
646.2,45070
646.3,45014
646.4,44960
646.5,44906
646.6,44861
646.7,44818
646.8,44755
646.9,44694
647.0,44634
647.1,44567
647.2,44503
647.3,44452
647.4,44405
647.5,44341
647.6,44271
647.7,44206
647.8,44140
647.9,44087
648.0,44030
648.1,43955
648.2,43884
648.3,43813
648.4,43742
648.5,43665
648.6,43604
648.7,43545
648.8,43471
648.9,43393
649.0,43320
649.1,43247
649.2,43174
649.3,43109
649.4,43046
649.5,42971
649.6,42897
649.7,42824
649.8,42746
649.9,42686
650.0,42624
650.1,42551
650.2,42478
650.3,42400
650.4,42328
650.5,42257
650.6,42198
650.7,42137
650.8,42060
650.9,41988
651.0,41917
651.1,41841
651.2,41771
651.3,41717
651.4,41664
651.5,41598
651.6,41530
651.7,41468
651.8,41406
651.9,41361
652.0,41308
652.1,41245
652.2,41185
652.3,41125
652.4,41067
652.5,41005
652.6,40962
652.7,40918
652.8,40861
652.9,40802
653.0,40748
653.1,40693
653.2,40638
653.3,40580
653.4,40534
653.5,40493
653.6,40436
653.7,40378
653.8,40315
653.9,40255
654.0,40209
654.1,40163
654.2,40102
654.3,40037
654.4,39975
654.5,39913
654.6,39865
654.7,39808
654.8,39738
654.9,39670
655.0,39601
655.1,39525
655.2,39453
655.3,39382
655.4,39322
655.5,39266
655.6,39190
655.7,39121
655.8,39052
655.9,38984
656.0,38912
656.1,38852
656.2,38802
656.3,38736
656.4,38671
656.5,38602
656.6,38538
656.7,38490
656.8,38442
656.9,38381
657.0,38326
657.1,38273
657.2,38222
657.3,38168
657.4,38131
657.5,38097
657.6,38051
657.7,38007
657.8,37960
657.9,37918
658.0,37878
658.1,37851
658.2,37830
658.3,37794
658.4,37763
658.5,37733
658.6,37705
658.7,37676
658.8,37661
658.9,37652
659.0,37627
659.1,37600
659.2,37575
659.3,37551
659.4,37541
659.5,37531
659.6,37507
659.7,37486
659.8,37465
659.9,37445
660.0,37423
660.1,37416
660.2,37410
660.3,37390
660.4,37368
660.5,37342
660.6,37314
660.7,37285
660.8,37266
660.9,37246
661.0,37211
661.1,37174
661.2,37134
661.3,37089
661.4,37059
661.5,37024
661.6,36976
661.7,36925
661.8,36867
661.9,36810
662.0,36752
662.1,36707
662.2,36657
662.3,36591
662.4,36526
662.5,36461
662.6,36395
662.7,36324
662.8,36267
662.9,36212
663.0,36140
663.1,36062
663.2,35987
663.3,35912
663.4,35853
663.5,35786
663.6,35707
663.7,35631
663.8,35557
663.9,35483
664.0,35407
664.1,35353
664.2,35299
664.3,35234
664.4,35170
664.5,35103
664.6,35043
664.7,34985
664.8,34926
664.9,34880
665.0,34844
665.1,34791
665.2,34740
665.3,34687
665.4,34639
665.5,34607
665.6,34577
665.7,34534
665.8,34489
665.9,34448
666.0,34408
666.1,34386
666.2,34360
666.3,34323
666.4,34289
666.5,34256
666.6,34224
666.7,34191
666.8,34160
666.9,34140
667.0,34125
667.1,34092
667.2,34060
667.3,34026
667.4,33990
667.5,33952
667.6,33924
667.7,33901
667.8,33862
667.9,33821
668.0,33778
668.1,33735
668.2,33707
668.3,33678
668.4,33633
668.5,33585
668.6,33540
668.7,33494
668.8,33443
668.9,33406
669.0,33369
669.1,33316
669.2,33262
669.3,33201
669.4,33144
669.5,33086
669.6,33039
669.7,32992
669.8,32924
669.9,32860
670.0,32795
670.1,32729
670.2,32659
670.3,32601
670.4,32550
670.5,32482
670.6,32413
670.7,32337
670.8,32266
670.9,32210
671.0,32151
671.1,32075
671.2,32002
671.3,31929
671.4,31855
671.5,31776
671.6,31714
671.7,31655
671.8,31582
671.9,31509
672.0,31430
672.1,31357
672.2,31286
672.3,31228
672.4,31174
672.5,31101
672.6,31033
672.7,30966
672.8,30894
672.9,30843
673.0,30789
673.1,30724
673.2,30658
673.3,30586
673.4,30520
673.5,30454
673.6,30401
673.7,30345
673.8,30272
673.9,30204
674.0,30136
674.1,30067
674.2,29994
674.3,29937
674.4,29883
674.5,29815
674.6,29748
674.7,29676
674.8,29610
674.9,29561
675.0,29503
675.1,29433
675.2,29367
675.3,29301
675.4,29236
675.5,29167
675.6,29116
675.7,29061
675.8,28995
675.9,28927
676.0,28855
676.1,28789
676.2,28723
676.3,28670
676.4,28614
676.5,28542
676.6,28474
676.7,28407
676.8,28335
676.9,28267
677.0,28216
677.1,28164
677.2,28098
677.3,28028
677.4,27963
677.5,27899
677.6,27852
677.7,27797
677.8,27731
677.9,27668
678.0,27606
678.1,27543
678.2,27476
678.3,27412
678.4,27362
678.5,27318
678.6,27258
678.7,27194
678.8,27135
678.9,27076
679.0,27014
679.1,26965
679.2,26923
679.3,26866
679.4,26809
679.5,26747
679.6,26688
679.7,26644
679.8,26600
679.9,26542
680.0,26481
680.1,26424
680.2,26367
680.3,26309
680.4,26260
680.5,26214
680.6,26156
680.7,26100
680.8,26038
680.9,25981
681.0,25926
681.1,25881
681.2,25840
681.3,25782
681.4,25728
681.5,25674
681.6,25621
681.7,25564
681.8,25518
681.9,25477
682.0,25421
682.1,25365
682.2,25303
682.3,25244
682.4,25199
682.5,25153
682.6,25092
682.7,25026
682.8,24965
682.9,24904
683.0,24840
683.1,24790
683.2,24741
683.3,24679
683.4,24617
683.5,24548
683.6,24485
683.7,24423
683.8,24371
683.9,24322
684.0,24254
684.1,24190
684.2,24126
684.3,24061
684.4,24008
684.5,23952
684.6,23888
684.7,23824
684.8,23754
684.9,23690
685.0,23627
685.1,23577
685.2,23525
685.3,23460
685.4,23400
685.5,23341
685.6,23281
685.7,23217
685.8,23167
685.9,23120
686.0,23060
686.1,23001
686.2,22937
686.3,22878
686.4,22833
686.5,22784
686.6,22724
686.7,22663
686.8,22606
686.9,22551
687.0,22494
687.1,22453
687.2,22411
687.3,22358
687.4,22307
687.5,22253
687.6,22205
687.7,22157
687.8,22121
687.9,22084
688.0,22034
688.1,21987
688.2,21940
688.3,21894
688.4,21845
688.5,21810
688.6,21776
688.7,21731
688.8,21683
688.9,21639
689.0,21596
689.1,21568
689.2,21534
689.3,21491
689.4,21451
689.5,21411
689.6,21372
689.7,21330
689.8,21290
689.9,21260
690.0,21235
690.1,21195
690.2,21151
690.3,21110
690.4,21069
690.5,21038
690.6,21006
690.7,20960
690.8,20917
690.9,20874
691.0,20826
691.1,20782
691.2,20751
691.3,20720
691.4,20677
691.5,20632
691.6,20590
691.7,20548
691.8,20507
691.9,20475
692.0,20444
692.1,20403
692.2,20362
692.3,20320
692.4,20275
692.5,20232
692.6,20200
692.7,20171
692.8,20128
692.9,20089
693.0,20051
693.1,20013
693.2,19975
693.3,19948
693.4,19927
693.5,19893
693.6,19861
693.7,19826
693.8,19794
693.9,19773
694.0,19752
694.1,19720
694.2,19688
694.3,19659
694.4,19631
694.5,19603
694.6,19585
694.7,19568
694.8,19542
694.9,19516
695.0,19488
695.1,19462
695.2,19435
695.3,19416
695.4,19400
695.5,19369
695.6,19341
695.7,19313
695.8,19285
695.9,19268
696.0,19249
696.1,19222
696.2,19195
696.3,19168
696.4,19138
696.5,19109
696.6,19089
696.7,19066
696.8,19033
696.9,18997
697.0,18965
697.1,18930
697.2,18898
697.3,18866
697.4,18844
697.5,18823
697.6,18792
697.7,18760
697.8,18730
697.9,18696
698.0,18662
698.1,18626
698.2,18587
698.3,18557
698.4,18530
698.5,18489
698.6,18450
698.7,18408
698.8,18371
698.9,18331
699.0,18289
699.1,18257
699.2,18228
699.3,18184
699.4,18143
699.5,18098
699.6,18055
699.7,18010
699.8,17976
699.9,17943
700.0,17899
700.1,17858
700.2,17822
700.3,17782
700.4,17746
700.5,17708
700.6,17680
700.7,17650
700.8,17608
700.9,17566
701.0,17525
701.1,17479
701.2,17436
701.3,17390
701.4,17354
701.5,17317
701.6,17268
701.7,17220
701.8,17175
701.9,17124
702.0,17077
702.1,17026
702.2,16985
702.3,16944
702.4,16890
702.5,16836
702.6,16787
702.7,16734
702.8,16686
702.9,16636
703.0,16597
703.1,16559
703.2,16508
703.3,16460
703.4,16414
703.5,16364
703.6,16318
703.7,16270
703.8,16231
703.9,16191
704.0,16139
704.1,16089
704.2,16042
704.3,15991
704.4,15944
704.5,15894
704.6,15853
704.7,15813
704.8,15762
704.9,15714
705.0,15669
705.1,15622
705.2,15579
705.3,15536
705.4,15503
705.5,15472
705.6,15432
705.7,15397
705.8,15359
705.9,15324
706.0,15293
706.1,15262
706.2,15241
706.3,15222
706.4,15194
706.5,15169
706.6,15142
706.7,15116
706.8,15093
706.9,15069
707.0,15055
707.1,15041
707.2,15020
707.3,15000
707.4,14980
707.5,14962
707.6,14945
707.7,14929
707.8,14922
707.9,14916
708.0,14901
708.1,14887
708.2,14871
708.3,14855
708.4,14840
708.5,14824
708.6,14819
708.7,14814
708.8,14802
708.9,14790
709.0,14779
709.1,14769
709.2,14761
709.3,14753
709.4,14753
709.5,14752
709.6,14740
709.7,14727
709.8,14712
709.9,14694
710.0,14677
710.1,14658
710.2,14647
710.3,14634
710.4,14613
710.5,14592
710.6,14570
710.7,14548
710.8,14528
710.9,14506
711.0,14494
711.1,14481
711.2,14460
711.3,14440
711.4,14419
711.5,14397
711.6,14378
711.7,14356
711.8,14343
711.9,14329
712.0,14305
712.1,14280
712.2,14252
712.3,14225
712.4,14194
712.5,14163
712.6,14141
712.7,14118
712.8,14089
712.9,14061
713.0,14031
713.1,14006
713.2,13979
713.3,13953
713.4,13935
713.5,13918
713.6,13892
713.7,13867
713.8,13840
713.9,13813
714.0,13785
714.1,13757
714.2,13738
714.3,13719
714.4,13692
714.5,13668
714.6,13641
714.7,13617
714.8,13593
714.9,13569
715.0,13554
715.1,13541
715.2,13520
715.3,13501
715.4,13481
715.5,13463
715.6,13444
715.7,13425
715.8,13413
715.9,13402
716.0,13382
716.1,13362
716.2,13338
716.3,13316
716.4,13292
716.5,13268
716.6,13252
716.7,13236
716.8,13213
716.9,13190
717.0,13166
717.1,13143
717.2,13117
717.3,13091
717.4,13070
717.5,13049
717.6,13018
717.7,12986
717.8,12951
717.9,12916
718.0,12878
718.1,12848
718.2,12815
718.3,12775
718.4,12734
718.5,12695
718.6,12652
718.7,12613
718.8,12570
718.9,12537
719.0,12501
719.1,12457
719.2,12415
719.3,12375
719.4,12331
719.5,12292
719.6,12250
719.7,12210
719.8,12175
719.9,12140
720.0,12098
720.1,12058
720.2,12014
720.3,11975
720.4,11933
720.5,11893
720.6,11858
720.7,11823
720.8,11785
720.9,11751
721.0,11715
721.1,11685
721.2,11654
721.3,11626
721.4,11606
721.5,11588
721.6,11567
721.7,11549
721.8,11533
721.9,11520
722.0,11509
722.1,11509
722.2,11508
722.3,11505
722.4,11505
722.5,11507
722.6,11510
722.7,11516
722.8,11524
722.9,11540
723.0,11555
723.1,11567
723.2,11582
723.3,11598
723.4,11616
723.5,11633
723.6,11653
723.7,11673
723.8,11699
723.9,11726
724.0,11747
724.1,11766
724.2,11784
724.3,11797
724.4,11811
724.5,11823
724.6,11840
724.7,11857
724.8,11866
724.9,11875
725.0,11883
725.1,11889
725.2,11895
725.3,11900
725.4,11910
725.5,11921
725.6,11923
725.7,11925
725.8,11925
725.9,11923
726.0,11919
726.1,11920
726.2,11916
726.3,11904
726.4,11889
726.5,11870
726.6,11848
726.7,11822
726.8,11792
726.9,11768
727.0,11739
727.1,11701
727.2,11664
727.3,11623
727.4,11582
727.5,11543
727.6,11502
727.7,11463
727.8,11427
727.9,11391
728.0,11349
728.1,11303
728.2,11261
728.3,11213
728.4,11165
728.5,11119
728.6,11076
728.7,11035
728.8,10989
728.9,10942
729.0,10899
729.1,10853
729.2,10810
729.3,10767
729.4,10728
729.5,10692
729.6,10651
729.7,10609
729.8,10571
729.9,10529
730.0,10491
730.1,10459
730.2,10427
730.3,10392
730.4,10355
730.5,10320
730.6,10288
730.7,10255
730.8,10226
730.9,10202
731.0,10180
731.1,10154
731.2,10129
731.3,10106
731.4,10085
731.5,10066
731.6,10048
731.7,10031
731.8,10019
731.9,10008
732.0,9992
732.1,9976
732.2,9957
732.3,9938
732.4,9917
732.5,9894
732.6,9875
732.7,9858
732.8,9833
732.9,9809
733.0,9781
733.1,9755
733.2,9728
733.3,9700
733.4,9677
733.5,9655
733.6,9626
733.7,9599
733.8,9568
733.9,9540
734.0,9510
734.1,9484
734.2,9457
734.3,9422
734.4,9386
734.5,9353
734.6,9316
734.7,9282
734.8,9245
734.9,9212
735.0,9180
735.1,9142
735.2,9107
735.3,9070
735.4,9032
735.5,8996
735.6,8959
735.7,8927
735.8,8895
735.9,8858
736.0,8822
736.1,8784
736.2,8750
736.3,8714
736.4,8679
736.5,8651
736.6,8625
736.7,8595
736.8,8567
736.9,8539
737.0,8515
737.1,8491
737.2,8470
737.3,8453
737.4,8437
737.5,8419
737.6,8405
737.7,8391
737.8,8379
737.9,8368
738.0,8359
738.1,8354
738.2,8351
738.3,8345
738.4,8338
738.5,8332
738.6,8326
738.7,8320
738.8,8315
738.9,8314
739.0,8315
739.1,8312
739.2,8309
739.3,8307
739.4,8305
739.5,8304
739.6,8308
739.7,8310
739.8,8308
739.9,8306
740.0,8303
740.1,8300
740.2,8297
740.3,8293
740.4,8294
740.5,8293
740.6,8289
740.7,8286
740.8,8282
740.9,8279
741.0,8276
741.1,8273
741.2,8270
741.3,8272
741.4,8274
741.5,8273
741.6,8271
741.7,8268
741.8,8266
741.9,8263
742.0,8261
742.1,8261
742.2,8261
742.3,8255
742.4,8248
742.5,8239
742.6,8230
742.7,8219
742.8,8207
742.9,8198
743.0,8188
743.1,8173
743.2,8158
743.3,8143
743.4,8127
743.5,8114
743.6,8100
743.7,8092
743.8,8083
743.9,8071
744.0,8060
744.1,8048
744.2,8036
744.3,8024
744.4,8011
744.5,8001
744.6,7989
744.7,7972
744.8,7954
744.9,7936
745.0,7915
745.1,7897
745.2,7877
745.3,7861
745.4,7845
745.5,7825
745.6,7804
745.7,7784
745.8,7761
745.9,7739
746.0,7716
746.1,7695
746.2,7675
746.3,7648
746.4,7622
746.5,7598
746.6,7572
746.7,7549
746.8,7526
746.9,7508
747.0,7491
747.1,7472
747.2,7455
747.3,7440
747.4,7425
747.5,7412
747.6,7399
747.7,7388
747.8,7381
747.9,7376
748.0,7368
748.1,7360
748.2,7352
748.3,7344
748.4,7337
748.5,7331
748.6,7329
748.7,7328
748.8,7324
748.9,7321
749.0,7319
749.1,7320
749.2,7322
749.3,7327
749.4,7337
749.5,7349
749.6,7361
749.7,7375
749.8,7390
749.9,7406
750.0,7422
750.1,7442
750.2,7461
750.3,7475
750.4,7490
750.5,7503
750.6,7515
750.7,7525
750.8,7535
750.9,7549
751.0,7561
751.1,7572
751.2,7581
751.3,7591
751.4,7601
751.5,7611
751.6,7620
751.7,7629
751.8,7637
751.9,7647
752.0,7657
752.1,7663
752.2,7668
752.3,7674
752.4,7679
752.5,7685
752.6,7691
752.7,7702
752.8,7713
752.9,7721
753.0,7728
753.1,7734
753.2,7740
753.3,7746
753.4,7750
753.5,7754
753.6,7760
753.7,7766
753.8,7766
753.9,7766
754.0,7765
754.1,7764
754.2,7761
754.3,7756
754.4,7754
754.5,7751
754.6,7745
754.7,7736
754.8,7726
754.9,7717
755.0,7706
755.1,7695
755.2,7684
755.3,7676
755.4,7667
755.5,7652
755.6,7637
755.7,7618
755.8,7597
755.9,7575
756.0,7549
756.1,7523
756.2,7494
756.3,7461
756.4,7425
756.5,7388
756.6,7352
756.7,7313
756.8,7272
756.9,7237
757.0,7199
757.1,7156
757.2,7111
757.3,7067
757.4,7024
757.5,6975
757.6,6925
757.7,6877
757.8,6826
757.9,6775
758.0,6727
758.1,6677
758.2,6624
758.3,6570
758.4,6520
758.5,6466
758.6,6412
758.7,6364
758.8,6317
758.9,6266
759.0,6217
759.1,6171
759.2,6123
759.3,6076
759.4,6035
759.5,5995
759.6,5959
759.7,5925
759.8,5891
759.9,5859
760.0,5828
760.1,5799
760.2,5775
760.3,5751
760.4,5733
760.5,5719
760.6,5704
760.7,5691
760.8,5682
760.9,5677
761.0,5675
761.1,5676
761.2,5680
761.3,5688
761.4,5698
761.5,5707
761.6,5716
761.7,5729
761.8,5743
761.9,5757
762.0,5772
762.1,5792
762.2,5813
762.3,5833
762.4,5854
762.5,5879
762.6,5906
762.7,5932
762.8,5961
762.9,5991
763.0,6025
763.1,6061
763.2,6097
763.3,6133
763.4,6166
763.5,6202
763.6,6236
763.7,6266
763.8,6297
763.9,6329
764.0,6358
764.1,6381
764.2,6403
764.3,6420
764.4,6437
764.5,6453
764.6,6471
764.7,6488
764.8,6504
764.9,6519
765.0,6533
765.1,6548
765.2,6563
765.3,6577
765.4,6592
765.5,6607
765.6,6622
765.7,6637
765.8,6646
765.9,6654
766.0,6660
766.1,6665
766.2,6669
766.3,6671
766.4,6672
766.5,6671
766.6,6664
766.7,6654
766.8,6643
766.9,6630
767.0,6616
767.1,6599
767.2,6585
767.3,6571
767.4,6553
767.5,6536
767.6,6519
767.7,6503
767.8,6488
767.9,6471
768.0,6454
768.1,6439
768.2,6426
768.3,6408
768.4,6390
768.5,6374
768.6,6356
768.7,6340
768.8,6325
768.9,6312
769.0,6302
769.1,6290
769.2,6277
769.3,6264
769.4,6250
769.5,6235
769.6,6217
769.7,6203
769.8,6188
769.9,6169
770.0,6152
770.1,6135
770.2,6117
770.3,6102
770.4,6087
770.5,6073
770.6,6065
770.7,6058
770.8,6047
770.9,6036
771.0,6026
771.1,6016
771.2,6008
771.3,6000
771.4,5996
771.5,5993
771.6,5987
771.7,5982
771.8,5976
771.9,5971
772.0,5966
772.1,5960
772.2,5956
772.3,5950
772.4,5940
772.5,5929
772.6,5918
772.7,5909
772.8,5900
772.9,5892
773.0,5886
773.1,5884
773.2,5883
773.3,5879
773.4,5877
773.5,5875
773.6,5873
773.7,5872
773.8,5871
773.9,5870
774.0,5868
774.1,5868
774.2,5870
774.3,5868
774.4,5866
774.5,5862
774.6,5856
774.7,5850
774.8,5842
774.9,5835
775.0,5827
775.1,5816
775.2,5805
775.3,5793
775.4,5783
775.5,5776
775.6,5770
775.7,5766
775.8,5763
775.9,5764
776.0,5766
776.1,5767
776.2,5767
776.3,5768
776.4,5769
776.5,5770
776.6,5771
776.7,5772
776.8,5777
776.9,5784
777.0,5788
777.1,5793
777.2,5799
777.3,5805
777.4,5812
777.5,5820
777.6,5829
777.7,5841
777.8,5854
777.9,5866
778.0,5880
778.1,5895
778.2,5912
778.3,5929
778.4,5949
778.5,5970
778.6,5995
778.7,6019
778.8,6040
778.9,6062
779.0,6083
779.1,6104
779.2,6123
779.3,6139
779.4,6155
779.5,6170
779.6,6186
779.7,6202
779.8,6212
779.9,6222
780.0,6229
780.1,6233
780.2,6236
780.3,6239
780.4,6246
780.5,6251
780.6,6254
780.7,6256
780.8,6258
780.9,6261
781.0,6264
781.1,6268
781.2,6271
781.3,6271
781.4,6272
781.5,6271
781.6,6265
781.7,6256
781.8,6245
781.9,6233
782.0,6217
782.1,6199
782.2,6178
782.3,6160
782.4,6141
782.5,6117
782.6,6092
782.7,6067
782.8,6040
782.9,6016
783.0,5989
783.1,5962
783.2,5935
783.3,5913
783.4,5893
783.5,5869
783.6,5846
783.7,5822
783.8,5799
783.9,5778
784.0,5756
784.1,5735
784.2,5713
784.3,5689
784.4,5665
784.5,5639
784.6,5613
784.7,5589
784.8,5564
784.9,5542
785.0,5520
785.1,5498
785.2,5478
785.3,5457
785.4,5437
785.5,5415
785.6,5394
785.7,5373
785.8,5351
785.9,5335
786.0,5317
786.1,5298
786.2,5280
786.3,5263
786.4,5248
786.5,5233
786.6,5220
786.7,5206
786.8,5194
786.9,5185
787.0,5176
787.1,5164
787.2,5151
787.3,5137
787.4,5122
787.5,5108
787.6,5091
787.7,5074
787.8,5056
787.9,5039
788.0,5024
788.1,5004
788.2,4985
788.3,4966
788.4,4948
788.5,4932
788.6,4914
788.7,4896
788.8,4881
788.9,4868
789.0,4854
789.1,4839
789.2,4823
789.3,4809
789.4,4793
789.5,4777
789.6,4762
789.7,4745
789.8,4724
789.9,4701
790.0,4678
790.1,4651
790.2,4621
790.3,4590
790.4,4557
790.5,4527
790.6,4500
790.7,4472
790.8,4442
790.9,4414
791.0,4387
791.1,4359
791.2,4331
791.3,4305
791.4,4280
791.5,4258
791.6,4236
791.7,4209
791.8,4183
791.9,4158
792.0,4135
792.1,4112
792.2,4090
792.3,4067
792.4,4047
792.5,4029
792.6,4011
792.7,3992
792.8,3976
792.9,3962
793.0,3951
793.1,3943
793.2,3938
793.3,3936
793.4,3939
793.5,3945
793.6,3950
793.7,3959
793.8,3971
793.9,3983
794.0,3996
794.1,4008
794.2,4023
794.3,4040
794.4,4060
794.5,4079
794.6,4099
794.7,4120
794.8,4142
794.9,4164
795.0,4187
795.1,4210
795.2,4231
795.3,4254
795.4,4275
795.5,4292
795.6,4309
795.7,4327
795.8,4344
795.9,4361
796.0,4377
796.1,4394
796.2,4410
796.3,4428
796.4,4445
796.5,4457
796.6,4466
796.7,4471
796.8,4474
796.9,4474
797.0,4472
797.1,4467
797.2,4461
797.3,4456
797.4,4448
797.5,4437
797.6,4424
797.7,4410
797.8,4395
797.9,4379
798.0,4361
798.1,4343
798.2,4324
798.3,4304
798.4,4287
798.5,4272
798.6,4256
798.7,4242
798.8,4227
798.9,4212
799.0,4197
799.1,4182
799.2,4167
799.3,4152
799.4,4141
799.5,4130
799.6,4117
799.7,4104
799.8,4092
799.9,4084
800.0,4079
