nm,INT
500.0,60
500.1,59
500.2,58
500.3,57
500.4,55
500.5,54
500.6,53
500.7,52
500.8,51
500.9,50
501.0,50
501.1,49
501.2,49
501.3,49
501.4,49
501.5,49
501.6,50
501.7,51
501.8,52
501.9,52
502.0,53
502.1,54
502.2,55
502.3,55
502.4,56
502.5,56
502.6,56
502.7,56
502.8,56
502.9,56
503.0,56
503.1,55
503.2,55
503.3,55
503.4,55
503.5,55
503.6,55
503.7,55
503.8,55
503.9,55
504.0,56
504.1,57
504.2,58
504.3,59
504.4,60
504.5,61
504.6,62
504.7,63
504.8,64
504.9,65
505.0,66
505.1,67
505.2,67
505.3,68
505.4,68
505.5,68
505.6,68
505.7,68
505.8,68
505.9,68
506.0,68
506.1,67
506.2,67
506.3,66
506.4,66
506.5,65
506.6,64
506.7,64
506.8,63
506.9,62
507.0,61
507.1,61
507.2,61
507.3,61
507.4,61
507.5,61
507.6,61
507.7,61
507.8,61
507.9,62
508.0,62
508.1,62
508.2,63
508.3,64
508.4,64
508.5,65
508.6,66
508.7,67
508.8,69
508.9,70
509.0,72
509.1,74
509.2,76
509.3,79
509.4,81
509.5,84
509.6,87
509.7,90
509.8,94
509.9,97
510.0,101
510.1,105
510.2,109
510.3,113
510.4,117
510.5,121
510.6,124
510.7,128
510.8,132
510.9,135
511.0,138
511.1,140
511.2,143
511.3,145
511.4,147
511.5,149
511.6,151
511.7,153
511.8,154
511.9,156
512.0,157
512.1,159
512.2,160
512.3,161
512.4,162
512.5,163
512.6,164
512.7,165
512.8,166
512.9,167
513.0,167
513.1,168
513.2,168
513.3,169
513.4,169
513.5,169
513.6,169
513.7,168
513.8,168
513.9,167
514.0,165
514.1,164
514.2,163
514.3,162
514.4,161
514.5,160
514.6,160
514.7,159
514.8,159
514.9,159
515.0,159
515.1,160
515.2,161
515.3,162
515.4,164
515.5,166
515.6,168
515.7,170
515.8,172
515.9,175
516.0,177
516.1,180
516.2,183
516.3,186
516.4,190
516.5,193
516.6,197
516.7,200
516.8,204
516.9,208
517.0,211
517.1,215
517.2,219
517.3,223
517.4,227
517.5,231
517.6,235
517.7,240
517.8,244
517.9,248
518.0,253
518.1,257
518.2,261
518.3,266
518.4,270
518.5,275
518.6,279
518.7,283
518.8,286
518.9,290
519.0,293
519.1,296
519.2,299
519.3,302
519.4,304
519.5,307
519.6,309
519.7,311
519.8,313
519.9,314
520.0,316
520.1,317
520.2,318
520.3,319
520.4,319
520.5,320
520.6,320
520.7,321
520.8,321
520.9,322
521.0,322
521.1,323
521.2,324
521.3,325
521.4,326
521.5,327
521.6,328
521.7,330
521.8,332
521.9,334
522.0,336
522.1,339
522.2,341
522.3,344
522.4,347
522.5,351
522.6,354
522.7,358
522.8,362
522.9,366
523.0,370
523.1,375
523.2,379
523.3,384
523.4,389
523.5,394
523.6,398
523.7,404
523.8,410
523.9,416
524.0,423
524.1,430
524.2,437
524.3,445
524.4,454
524.5,462
524.6,471
524.7,481
524.8,490
524.9,500
525.0,510
525.1,521
525.2,531
525.3,542
525.4,553
525.5,565
525.6,577
525.7,589
525.8,601
525.9,613
526.0,625
526.1,638
526.2,650
526.3,663
526.4,677
526.5,691
526.6,705
526.7,719
526.8,733
526.9,749
527.0,764
527.1,780
527.2,797
527.3,813
527.4,829
527.5,846
527.6,862
527.7,878
527.8,894
527.9,910
528.0,926
528.1,942
528.2,957
528.3,972
528.4,987
528.5,1002
528.6,1018
528.7,1033
528.8,1048
528.9,1063
529.0,1077
529.1,1092
529.2,1107
529.3,1121
529.4,1135
529.5,1149
529.6,1163
529.7,1176
529.8,1189
529.9,1201
530.0,1214
530.1,1226
530.2,1238
530.3,1250
530.4,1262
530.5,1274
530.6,1286
530.7,1298
530.8,1310
530.9,1322
531.0,1334
531.1,1346
531.2,1359
531.3,1372
531.4,1384
531.5,1397
531.6,1410
531.7,1424
531.8,1437
531.9,1451
532.0,1466
532.1,1480
532.2,1495
532.3,1511
532.4,1527
532.5,1543
532.6,1561
532.7,1578
532.8,1596
532.9,1613
533.0,1633
533.1,1653
533.2,1674
533.3,1695
533.4,1716
533.5,1738
533.6,1761
533.7,1784
533.8,1807
533.9,1831
534.0,1855
534.1,1880
534.2,1904
534.3,1929
534.4,1954
534.5,1979
534.6,2005
534.7,2032
534.8,2059
534.9,2087
535.0,2115
535.1,2144
535.2,2172
535.3,2200
535.4,2229
535.5,2257
535.6,2285
535.7,2312
535.8,2339
535.9,2366
536.0,2390
536.1,2415
536.2,2441
536.3,2466
536.4,2490
536.5,2514
536.6,2538
536.7,2562
536.8,2585
536.9,2608
537.0,2630
537.1,2652
537.2,2674
537.3,2697
537.4,2719
537.5,2741
537.6,2761
537.7,2782
537.8,2803
537.9,2825
538.0,2845
538.1,2865
538.2,2885
538.3,2905
538.4,2925
538.5,2945
538.6,2964
538.7,2984
538.8,3004
538.9,3024
539.0,3045
539.1,3066
539.2,3085
539.3,3106
539.4,3128
539.5,3149
539.6,3171
539.7,3194
539.8,3216
539.9,3238
540.0,3260
540.1,3284
540.2,3308
540.3,3331
540.4,3356
540.5,3381
540.6,3406
540.7,3432
540.8,3457
540.9,3484
541.0,3511
541.1,3539
541.2,3566
541.3,3595
541.4,3623
541.5,3652
541.6,3680
541.7,3708
541.8,3737
541.9,3766
542.0,3795
542.1,3823
542.2,3849
542.3,3877
542.4,3907
542.5,3936
542.6,3965
542.7,3994
542.8,4024
542.9,4054
543.0,4085
543.1,4117
543.2,4150
543.3,4182
543.4,4215
543.5,4248
543.6,4283
543.7,4317
543.8,4349
543.9,4383
544.0,4419
544.1,4454
544.2,4492
544.3,4530
544.4,4567
544.5,4605
544.6,4644
544.7,4684
544.8,4726
544.9,4769
545.0,4811
545.1,4854
545.2,4897
545.3,4939
545.4,4983
545.5,5030
545.6,5076
545.7,5123
545.8,5172
545.9,5222
546.0,5273
546.1,5325
546.2,5377
546.3,5431
546.4,5485
546.5,5541
546.6,5598
546.7,5657
546.8,5715
546.9,5775
547.0,5835
547.1,5898
547.2,5961
547.3,6024
547.4,6088
547.5,6153
547.6,6218
547.7,6284
547.8,6351
547.9,6419
548.0,6485
548.1,6552
548.2,6620
548.3,6693
548.4,6765
548.5,6836
548.6,6906
548.7,6977
548.8,7049
548.9,7122
549.0,7197
549.1,7273
549.2,7347
549.3,7421
549.4,7496
549.5,7572
549.6,7650
549.7,7728
549.8,7805
549.9,7883
550.0,7961
550.1,8041
550.2,8123
550.3,8206
550.4,8287
550.5,8369
550.6,8451
550.7,8534
550.8,8620
550.9,8706
551.0,8790
551.1,8875
551.2,8961
551.3,9047
551.4,9136
551.5,9226
551.6,9315
551.7,9404
551.8,9493
551.9,9584
552.0,9678
552.1,9773
552.2,9866
552.3,9960
552.4,10055
552.5,10151
552.6,10252
552.7,10358
552.8,10466
552.9,10569
553.0,10673
553.1,10779
553.2,10885
553.3,10994
553.4,11105
553.5,11214
553.6,11323
553.7,11433
553.8,11542
553.9,11654
554.0,11767
554.1,11878
554.2,11989
554.3,12101
554.4,12217
554.5,12332
554.6,12446
554.7,12560
554.8,12676
554.9,12792
555.0,12909
555.1,13030
555.2,13153
555.3,13272
555.4,13393
555.5,13513
555.6,13639
555.7,13763
555.8,13885
555.9,14007
556.0,14130
556.1,14253
556.2,14376
556.3,14502
556.4,14631
556.5,14755
556.6,14880
556.7,15007
556.8,15133
556.9,15263
557.0,15395
557.1,15523
557.2,15663
557.3,15792
557.4,15921
557.5,16056
557.6,16191
557.7,16322
557.8,16454
557.9,16587
558.0,16720
558.1,16860
558.2,17000
558.3,17136
558.4,17274
558.5,17412
558.6,17552
558.7,17699
558.8,17847
558.9,17992
559.0,18138
559.1,18287
559.2,18438
559.3,18596
559.4,18756
559.5,18913
559.6,19071
559.7,19230
559.8,19390
559.9,19557
560.0,19725
560.1,19889
560.2,20053
560.3,20218
560.4,20384
560.5,20557
560.6,20733
560.7,20903
560.8,21076
560.9,21250
561.0,21426
561.1,21609
561.2,21794
561.3,21974
561.4,22156
561.5,22340
561.6,22539
561.7,22731
561.8,22925
561.9,23123
562.0,23315
562.1,23510
562.2,23706
562.3,23904
562.4,24109
562.5,24317
562.6,24518
562.7,24720
562.8,24923
562.9,25136
563.0,25347
563.1,25554
563.2,25761
563.3,25970
563.4,26181
563.5,26393
563.6,26613
563.7,26837
563.8,27054
563.9,27272
564.0,27492
564.1,27722
564.2,27950
564.3,28172
564.4,28396
564.5,28621
564.6,28848
564.7,29077
564.8,29314
564.9,29555
565.0,29789
565.1,30025
565.2,30262
565.3,30501
565.4,30749
565.5,31001
565.6,31243
565.7,31487
565.8,31731
565.9,31992
566.0,32256
566.1,32511
566.2,32757
566.3,33004
566.4,33251
566.5,33498
566.6,33752
566.7,34007
566.8,34253
566.9,34499
567.0,34743
567.1,34987
567.2,35239
567.3,35491
567.4,35734
567.5,35978
567.6,36223
567.7,36468
567.8,36724
567.9,36980
568.0,37228
568.1,37476
568.2,37726
568.3,37976
568.4,38237
568.5,38499
568.6,38751
568.7,39004
568.8,39257
568.9,39510
569.0,39772
569.1,40035
569.2,40289
569.3,40543
569.4,40798
569.5,41053
569.6,41317
569.7,41582
569.8,41838
569.9,42095
570.0,42353
570.1,42613
570.2,42883
570.3,43165
570.4,43444
570.5,43708
570.6,43974
570.7,44241
570.8,44509
570.9,44787
571.0,45069
571.1,45339
571.2,45610
571.3,45881
571.4,46164
571.5,46444
571.6,46716
571.7,46987
571.8,47259
571.9,47531
572.0,47803
572.1,48085
572.2,48370
572.3,48645
572.4,48920
572.5,49197
572.6,49486
572.7,49773
572.8,50052
572.9,50331
573.0,50610
573.1,50891
573.2,51172
573.3,51462
573.4,51757
573.5,52039
573.6,52322
573.7,52604
573.8,52888
573.9,53182
574.0,53482
574.1,53769
574.2,54058
574.3,54349
574.4,54655
574.5,54960
574.6,55257
574.7,55559
574.8,55888
574.9,56193
575.0,56499
575.1,56819
575.2,57141
575.3,57452
575.4,57765
575.5,58079
575.6,58394
575.7,58723
575.8,59054
575.9,59372
576.0,59691
576.1,60011
576.2,60332
576.3,60668
576.4,61005
576.5,61329
576.6,61654
576.7,61980
576.8,62306
576.9,62648
577.0,62991
577.1,63316
577.2,63622
577.3,63952
577.4,64283
577.5,64614
577.6,64948
577.7,65281
577.8,65590
577.9,65936
578.0,66271
578.1,66584
578.2,66917
578.3,67224
578.4,67567
578.5,67912
578.6,68235
578.7,68541
578.8,68871
578.9,69200
579.0,69529
579.1,69855
579.2,70182
579.3,70532
579.4,70850
579.5,71166
579.6,71497
579.7,71837
579.8,72163
579.9,72465
580.0,72765
580.1,73061
580.2,73373
580.3,73696
580.4,74007
580.5,74296
580.6,74583
580.7,74894
580.8,75181
580.9,75491
581.0,75794
581.1,76088
581.2,76395
581.3,76681
581.4,76968
581.5,77277
581.6,77602
581.7,77911
581.8,78202
581.9,78495
582.0,78813
582.1,79103
582.2,79394
582.3,79709
582.4,80035
582.5,80344
582.6,80633
582.7,80923
582.8,81213
582.9,81521
583.0,81849
583.1,82167
583.2,82466
583.3,82784
583.4,83080
583.5,83377
583.6,83710
583.7,84050
583.8,84371
583.9,84678
584.0,84988
584.1,85300
584.2,85637
584.3,85962
584.4,86305
584.5,86660
584.6,86986
584.7,87340
584.8,87667
584.9,87996
585.0,88357
585.1,88731
585.2,89085
585.3,89420
585.4,89756
585.5,90121
585.6,90466
585.7,90838
585.8,91211
585.9,91559
586.0,91931
586.1,92277
586.2,92626
586.3,92977
586.4,93377
586.5,93789
586.6,94147
586.7,94506
586.8,94867
586.9,95257
587.0,95630
587.1,96023
587.2,96438
587.3,96828
587.4,97192
587.5,97555
587.6,97919
587.7,98303
587.8,98713
587.9,99119
588.0,99482
588.1,99843
588.2,100233
588.3,100597
588.4,100990
588.5,101381
588.6,101739
588.7,102117
588.8,102463
588.9,102807
589.0,103149
589.1,103540
589.2,103940
589.3,104277
589.4,104613
589.5,104977
589.6,105311
589.7,105640
589.8,105999
589.9,106379
590.0,106725
590.1,107046
590.2,107365
590.3,107684
590.4,108063
590.5,108433
590.6,108751
590.7,109071
590.8,109391
590.9,109737
591.0,110061
591.1,110420
591.2,110790
591.3,111127
591.4,111443
591.5,111758
591.6,112071
591.7,112404
591.8,112769
591.9,113122
592.0,113435
592.1,113747
592.2,114090
592.3,114407
592.4,114771
592.5,115121
592.6,115443
592.7,115779
592.8,116092
592.9,116405
593.0,116741
593.1,117113
593.2,117463
593.3,117776
593.4,118092
593.5,118434
593.6,118747
593.7,119060
593.8,119417
593.9,119785
594.0,120115
594.1,120424
594.2,120730
594.3,121035
594.4,121357
594.5,121715
594.6,122061
594.7,122359
594.8,122656
594.9,122976
595.0,123269
595.1,123610
595.2,123946
595.3,124244
595.4,124523
595.5,124798
595.6,125068
595.7,125352
595.8,125619
595.9,125914
596.0,126221
596.1,126472
596.2,126740
596.3,126981
596.4,127219
596.5,127502
596.6,127791
596.7,128037
596.8,128266
596.9,128493
597.0,128735
597.1,128961
597.2,129231
597.3,129499
597.4,129722
597.5,129957
597.6,130173
597.7,130389
597.8,130603
597.9,130872
598.0,131152
598.1,131366
598.2,131580
598.3,131792
598.4,132020
598.5,132238
598.6,132491
598.7,132761
598.8,132973
598.9,133202
599.0,133412
599.1,133624
599.2,133848
599.3,134113
599.4,134388
599.5,134604
599.6,134821
599.7,135058
599.8,135283
599.9,135557
600.0,135831
600.1,136057
600.2,136297
600.3,136518
600.4,136739
600.5,136961
600.6,137239
600.7,137529
600.8,137750
600.9,137970
601.0,138211
601.1,138433
601.2,138652
601.3,138916
601.4,139203
601.5,139436
601.6,139653
601.7,139867
601.8,140079
601.9,140360
602.0,140628
602.1,140837
602.2,141044
602.3,141250
602.4,141470
602.5,141675
602.6,141928
602.7,142178
602.8,142375
602.9,142581
603.0,142768
603.1,142950
603.2,143139
603.3,143374
603.4,143600
603.5,143768
603.6,143935
603.7,144115
603.8,144280
603.9,144507
604.0,144715
604.1,144882
604.2,145054
604.3,145213
604.4,145370
604.5,145527
604.6,145751
604.7,145961
604.8,146113
604.9,146264
605.0,146425
605.1,146570
605.2,146715
605.3,146915
605.4,147120
605.5,147270
605.6,147409
605.7,147546
605.8,147682
605.9,147825
606.0,148021
606.1,148212
606.2,148344
606.3,148476
606.4,148619
606.5,148752
606.6,148952
606.7,149133
606.8,149272
606.9,149417
607.0,149552
607.1,149686
607.2,149831
607.3,149970
607.4,150153
607.5,150355
607.6,150490
607.7,150635
607.8,150767
607.9,150900
608.0,151090
608.1,151284
608.2,151423
608.3,151554
608.4,151684
608.5,151814
608.6,151952
608.7,152145
608.8,152331
608.9,152461
609.0,152598
609.1,152725
609.2,152849
609.3,152973
609.4,153152
609.5,153340
609.6,153456
609.7,153569
609.8,153680
609.9,153797
610.0,153907
610.1,154061
610.2,154233
610.3,154338
610.4,154452
610.5,154557
610.6,154661
610.7,154824
610.8,154991
610.9,155101
611.0,155204
611.1,155306
611.2,155416
611.3,155517
611.4,155674
611.5,155829
611.6,155925
611.7,156026
611.8,156117
611.9,156205
612.0,156292
612.1,156435
612.2,156586
612.3,156667
612.4,156746
612.5,156823
612.6,156905
612.7,156983
612.8,157107
612.9,157253
613.0,157333
613.1,157407
613.2,157480
613.3,157553
613.4,157694
613.5,157823
613.6,157894
613.7,157963
613.8,158032
613.9,158104
614.0,158171
614.1,158297
614.2,158422
614.3,158489
614.4,158561
614.5,158626
614.6,158692
614.7,158759
614.8,158884
614.9,159020
615.0,159088
615.1,159155
615.2,159228
615.3,159296
615.4,159430
615.5,159544
615.6,159609
615.7,159675
615.8,159735
615.9,159794
616.0,159851
616.1,159975
616.2,160085
616.3,160138
616.4,160190
616.5,160241
616.6,160297
616.7,160350
616.8,160461
616.9,160574
617.0,160628
617.1,160680
617.2,160732
617.3,160784
617.4,160839
617.5,160950
617.6,161058
617.7,161106
617.8,161153
617.9,161204
618.0,161250
618.1,161363
618.2,161453
618.3,161492
618.4,161530
618.5,161563
618.6,161595
618.7,161625
618.8,161654
618.9,161730
619.0,161824
619.1,161847
619.2,161874
619.3,161899
619.4,161923
619.5,162006
619.6,162090
619.7,162114
619.8,162138
619.9,162162
620.0,162184
620.1,162208
620.2,162290
620.3,162370
620.4,162392
620.5,162414
620.6,162437
620.7,162457
620.8,162476
620.9,162548
621.0,162629
621.1,162643
621.2,162655
621.3,162663
621.4,162667
621.5,162666
621.6,162711
621.7,162773
621.8,162765
621.9,162751
622.0,162733
622.1,162712
622.2,162745
622.3,162774
622.4,162740
622.5,162706
622.6,162666
622.7,162621
622.8,162566
622.9,162568
623.0,162569
623.1,162508
623.2,162440
623.3,162374
623.4,162306
623.5,162235
623.6,162211
623.7,162196
623.8,162120
623.9,162042
624.0,161960
624.1,161870
624.2,161782
624.3,161742
624.4,161721
624.5,161630
624.6,161529
624.7,161435
624.8,161340
624.9,161301
625.0,161253
625.1,161157
625.2,161062
625.3,160967
625.4,160864
625.5,160771
625.6,160738
625.7,160707
625.8,160620
625.9,160531
626.0,160450
626.1,160373
626.2,160297
626.3,160273
626.4,160262
626.5,160194
626.6,160129
626.7,160067
626.8,160005
626.9,160015
627.0,160013
627.1,159967
627.2,159924
627.3,159887
627.4,159856
627.5,159830
627.6,159868
627.7,159900
627.8,159885
627.9,159872
628.0,159861
628.1,159853
628.2,159847
628.3,159898
628.4,159950
628.5,159948
628.6,159945
628.7,159942
628.8,159940
628.9,159939
629.0,159995
629.1,160051
629.2,160052
629.3,160053
629.4,160055
629.5,160056
629.6,160122
629.7,160168
629.8,160167
629.9,160163
630.0,160157
630.1,160149
630.2,160137
630.3,160120
630.4,160143
630.5,160182
630.6,160152
630.7,160116
630.8,160073
630.9,160029
631.0,160037
631.1,160041
631.2,159985
631.3,159930
631.4,159873
631.5,159815
631.6,159752
631.7,159742
631.8,159733
631.9,159668
632.0,159602
632.1,159528
632.2,159457
632.3,159385
632.4,159356
632.5,159340
632.6,159254
632.7,159172
632.8,159089
632.9,158999
633.0,158912
633.1,158872
633.2,158851
633.3,158766
633.4,158676
633.5,158595
633.6,158515
633.7,158491
633.8,158465
633.9,158384
634.0,158308
634.1,158231
634.2,158154
634.3,158073
634.4,158046
634.5,158021
634.6,157942
634.7,157863
634.8,157774
634.9,157691
635.0,157609
635.1,157572
635.2,157543
635.3,157461
635.4,157378
635.5,157294
635.6,157202
635.7,157112
635.8,157067
635.9,157037
636.0,156941
636.1,156834
636.2,156731
636.3,156623
636.4,156563
636.5,156495
636.6,156367
636.7,156243
636.8,156115
636.9,155975
637.0,155839
637.1,155756
637.2,155670
637.3,155530
637.4,155381
637.5,155242
637.6,155103
637.7,154963
637.8,154861
637.9,154764
638.0,154619
638.1,154474
638.2,154326
638.3,154165
638.4,154067
638.5,153954
638.6,153797
638.7,153637
638.8,153463
638.9,153303
639.0,153140
639.1,153022
639.2,152896
639.3,152732
639.4,152569
639.5,152407
639.6,152235
639.7,152075
639.8,151970
639.9,151867
640.0,151714
640.1,151556
640.2,151413
640.3,151274
640.4,151195
640.5,151098
640.6,150963
640.7,150839
640.8,150720
640.9,150597
641.0,150488
641.1,150442
641.2,150385
641.3,150290
641.4,150195
641.5,150112
641.6,150033
641.7,149959
641.8,149884
641.9,149854
642.0,149846
642.1,149785
642.2,149726
642.3,149665
642.4,149610
642.5,149607
642.6,149606
642.7,149558
642.8,149507
642.9,149461
643.0,149417
643.1,149370
643.2,149374
643.3,149379
643.4,149337
643.5,149295
643.6,149249
643.7,149207
643.8,149164
643.9,149160
644.0,149170
644.1,149120
644.2,149070
644.3,149015
644.4,148957
644.5,148891
644.6,148861
644.7,148845
644.8,148769
644.9,148683
645.0,148599
645.1,148511
645.2,148467
645.3,148417
645.4,148315
645.5,148216
645.6,148115
645.7,148011
645.8,147897
645.9,147831
646.0,147768
646.1,147658
646.2,147549
646.3,147430
646.4,147320
646.5,147211
646.6,147141
646.7,147083
646.8,146965
646.9,146855
647.0,146743
647.1,146620
647.2,146500
647.3,146419
647.4,146351
647.5,146226
647.6,146089
647.7,145961
647.8,145834
647.9,145752
648.0,145665
648.1,145527
648.2,145398
648.3,145267
648.4,145135
648.5,144996
648.6,144908
648.7,144825
648.8,144693
648.9,144554
649.0,144427
649.1,144302
649.2,144178
649.3,144094
649.4,144020
649.5,143904
649.6,143788
649.7,143672
649.8,143550
649.9,143488
650.0,143415
650.1,143303
650.2,143190
650.3,143069
650.4,142957
650.5,142844
650.6,142778
650.7,142709
650.8,142590
650.9,142477
651.0,142364
651.1,142240
651.2,142121
651.3,142050
651.4,141977
651.5,141854
651.6,141724
651.7,141603
651.8,141481
651.9,141414
652.0,141324
652.1,141195
652.2,141072
652.3,140950
652.4,140828
652.5,140699
652.6,140630
652.7,140549
652.8,140426
652.9,140300
653.0,140184
653.1,140070
653.2,139958
653.3,139841
653.4,139766
653.5,139713
653.6,139608
653.7,139505
653.8,139396
653.9,139295
654.0,139245
654.1,139196
654.2,139099
654.3,138997
654.4,138904
654.5,138811
654.6,138774
654.7,138719
654.8,138625
654.9,138537
655.0,138451
655.1,138360
655.2,138278
655.3,138202
655.4,138168
655.5,138152
655.6,138079
655.7,138013
655.8,137948
655.9,137883
656.0,137815
656.1,137787
656.2,137778
656.3,137713
656.4,137645
656.5,137570
656.6,137499
656.7,137478
656.8,137456
656.9,137385
657.0,137318
657.1,137252
657.2,137188
657.3,137119
657.4,137102
657.5,137087
657.6,137024
657.7,136960
657.8,136887
657.9,136819
658.0,136750
658.1,136721
658.2,136704
658.3,136624
658.4,136546
658.5,136466
658.6,136383
658.7,136292
658.8,136239
658.9,136204
659.0,136107
659.1,135999
659.2,135899
659.3,135797
659.4,135743
659.5,135685
659.6,135574
659.7,135468
659.8,135362
659.9,135257
660.0,135145
660.1,135084
660.2,135024
660.3,134911
660.4,134796
660.5,134668
660.6,134546
660.7,134423
660.8,134338
660.9,134258
661.0,134130
661.1,134001
661.2,133873
661.3,133738
661.4,133670
661.5,133588
661.6,133464
661.7,133340
661.8,133206
661.9,133085
662.0,132965
662.1,132898
662.2,132827
662.3,132702
662.4,132584
662.5,132467
662.6,132351
662.7,132228
662.8,132161
662.9,132098
663.0,131980
663.1,131854
663.2,131735
663.3,131612
663.4,131548
663.5,131458
663.6,131321
663.7,131189
663.8,131056
663.9,130920
664.0,130770
664.1,130685
664.2,130583
664.3,130436
664.4,130286
664.5,130121
664.6,129967
664.7,129810
664.8,129641
664.9,129515
665.0,129412
665.1,129249
665.2,129085
665.3,128907
665.4,128739
665.5,128624
665.6,128509
665.7,128338
665.8,128154
665.9,127985
666.0,127815
666.1,127703
666.2,127563
666.3,127376
666.4,127198
666.5,127020
666.6,126841
666.7,126647
666.8,126461
666.9,126321
667.0,126193
667.1,125994
667.2,125810
667.3,125626
667.4,125442
667.5,125249
667.6,125103
667.7,124986
667.8,124809
667.9,124635
668.0,124450
668.1,124280
668.2,124170
668.3,124063
668.4,123904
668.5,123741
668.6,123592
668.7,123447
668.8,123296
668.9,123206
669.0,123125
669.1,122995
669.2,122867
669.3,122730
669.4,122605
669.5,122482
669.6,122406
669.7,122347
669.8,122222
669.9,122105
670.0,121991
670.1,121878
670.2,121762
670.3,121695
670.4,121653
670.5,121551
670.6,121452
670.7,121343
670.8,121241
670.9,121193
671.0,121141
671.1,121030
671.2,120921
671.3,120808
671.4,120692
671.5,120566
671.6,120493
671.7,120423
671.8,120297
671.9,120170
672.0,120028
672.1,119895
672.2,119764
672.3,119675
672.4,119598
672.5,119448
672.6,119305
672.7,119158
672.8,118999
672.9,118908
673.0,118801
673.1,118646
673.2,118488
673.3,118314
673.4,118154
673.5,117992
673.6,117882
673.7,117764
673.8,117586
673.9,117416
674.0,117244
674.1,117071
674.2,116886
674.3,116760
674.4,116639
674.5,116463
674.6,116289
674.7,116101
674.8,115927
674.9,115816
675.0,115678
675.1,115493
675.2,115316
675.3,115138
675.4,114957
675.5,114764
675.6,114641
675.7,114505
675.8,114324
675.9,114143
676.0,113952
676.1,113781
676.2,113612
676.3,113500
676.4,113383
676.5,113208
676.6,113044
676.7,112879
676.8,112700
676.9,112528
677.0,112410
677.1,112290
677.2,112111
677.3,111918
677.4,111738
677.5,111558
677.6,111440
677.7,111297
677.8,111108
677.9,110930
678.0,110754
678.1,110579
678.2,110392
678.3,110215
678.4,110092
678.5,109988
678.6,109823
678.7,109646
678.8,109486
678.9,109329
679.0,109164
679.1,109046
679.2,108954
679.3,108799
679.4,108643
679.5,108472
679.6,108309
679.7,108200
679.8,108090
679.9,107920
680.0,107738
680.1,107571
680.2,107406
680.3,107242
680.4,107121
680.5,107012
680.6,106855
680.7,106700
680.8,106535
680.9,106386
681.0,106240
681.1,106141
681.2,106055
681.3,105902
681.4,105760
681.5,105619
681.6,105479
681.7,105335
681.8,105238
681.9,105165
682.0,105030
682.1,104895
682.2,104751
682.3,104616
682.4,104537
682.5,104459
682.6,104324
682.7,104179
682.8,104043
682.9,103907
683.0,103763
683.1,103676
683.2,103595
683.3,103459
683.4,103325
683.5,103178
683.6,103041
683.7,102905
683.8,102814
683.9,102737
684.0,102590
684.1,102452
684.2,102310
684.3,102167
684.4,102073
684.5,101969
684.6,101822
684.7,101675
684.8,101514
684.9,101366
685.0,101218
685.1,101123
685.2,101023
685.3,100865
685.4,100715
685.5,100565
685.6,100414
685.7,100252
685.8,100146
685.9,100044
686.0,99889
686.1,99733
686.2,99566
686.3,99411
686.4,99320
686.5,99212
686.6,99056
686.7,98894
686.8,98746
686.9,98601
687.0,98447
687.1,98361
687.2,98263
687.3,98120
687.4,97977
687.5,97826
687.6,97689
687.7,97555
687.8,97474
687.9,97389
688.0,97250
688.1,97119
688.2,96990
688.3,96863
688.4,96729
688.5,96651
688.6,96578
688.7,96449
688.8,96312
688.9,96186
689.0,96063
689.1,96002
689.2,95920
689.3,95795
689.4,95677
689.5,95560
689.6,95444
689.7,95319
689.8,95200
689.9,95128
690.0,95071
690.1,94950
690.2,94817
690.3,94693
690.4,94566
690.5,94491
690.6,94410
690.7,94275
690.8,94147
690.9,94020
691.0,93881
691.1,93750
691.2,93673
691.3,93596
691.4,93464
691.5,93322
691.6,93191
691.7,93058
691.8,92925
691.9,92831
692.0,92745
692.1,92610
692.2,92475
692.3,92339
692.4,92192
692.5,92051
692.6,91955
692.7,91871
692.8,91720
692.9,91577
693.0,91434
693.1,91289
693.2,91137
693.3,91028
693.4,90944
693.5,90803
693.6,90664
693.7,90515
693.8,90376
693.9,90291
694.0,90208
694.1,90075
694.2,89935
694.3,89808
694.4,89682
694.5,89556
694.6,89471
694.7,89395
694.8,89274
694.9,89155
695.0,89027
695.1,88908
695.2,88790
695.3,88712
695.4,88645
695.5,88514
695.6,88391
695.7,88268
695.8,88145
695.9,88069
696.0,87986
696.1,87864
696.2,87746
696.3,87630
696.4,87507
696.5,87394
696.6,87333
696.7,87267
696.8,87160
696.9,87049
697.0,86946
697.1,86835
697.2,86732
697.3,86624
697.4,86566
697.5,86505
697.6,86401
697.7,86292
697.8,86190
697.9,86078
698.0,85973
698.1,85861
698.2,85745
698.3,85672
698.4,85615
698.5,85498
698.6,85387
698.7,85267
698.8,85155
698.9,85038
699.0,84918
699.1,84842
699.2,84786
699.3,84670
699.4,84563
699.5,84448
699.6,84342
699.7,84232
699.8,84174
699.9,84119
700.0,84015
700.1,83916
700.2,83825
700.3,83727
700.4,83636
700.5,83540
700.6,83493
700.7,83446
700.8,83345
700.9,83243
701.0,83146
701.1,83037
701.2,82935
701.3,82826
701.4,82765
701.5,82703
701.6,82589
701.7,82476
701.8,82372
701.9,82260
702.0,82157
702.1,82048
702.2,81988
702.3,81928
702.4,81820
702.5,81715
702.6,81617
702.7,81512
702.8,81414
702.9,81311
703.0,81254
703.1,81197
703.2,81088
703.3,80977
703.4,80872
703.5,80752
703.6,80639
703.7,80518
703.8,80444
703.9,80370
704.0,80244
704.1,80121
704.2,80007
704.3,79883
704.4,79770
704.5,79651
704.6,79581
704.7,79511
704.8,79391
704.9,79275
705.0,79168
705.1,79054
705.2,78949
705.3,78841
705.4,78783
705.5,78729
705.6,78632
705.7,78543
705.8,78447
705.9,78352
706.0,78265
706.1,78173
706.2,78125
706.3,78077
706.4,77982
706.5,77890
706.6,77787
706.7,77683
706.8,77586
706.9,77483
707.0,77423
707.1,77362
707.2,77252
707.3,77147
707.4,77031
707.5,76915
707.6,76806
707.7,76692
707.8,76622
707.9,76551
708.0,76435
708.1,76327
708.2,76213
708.3,76101
708.4,75999
708.5,75892
708.6,75829
708.7,75766
708.8,75656
708.9,75550
709.0,75433
709.1,75313
709.2,75199
709.3,75078
709.4,74997
709.5,74915
709.6,74787
709.7,74665
709.8,74531
709.9,74399
710.0,74278
710.1,74150
710.2,74067
710.3,73984
710.4,73861
710.5,73747
710.6,73629
710.7,73516
710.8,73416
710.9,73315
711.0,73260
711.1,73210
711.2,73123
711.3,73044
711.4,72964
711.5,72885
711.6,72813
711.7,72738
711.8,72707
711.9,72677
712.0,72607
712.1,72541
712.2,72470
712.3,72406
712.4,72339
712.5,72275
712.6,72256
712.7,72239
712.8,72182
712.9,72128
713.0,72069
713.1,72013
713.2,71952
713.3,71886
713.4,71859
713.5,71829
713.6,71754
713.7,71681
713.8,71600
713.9,71523
714.0,71440
714.1,71354
714.2,71310
714.3,71264
714.4,71176
714.5,71089
714.6,70992
714.7,70898
714.8,70792
714.9,70680
715.0,70606
715.1,70528
715.2,70404
715.3,70281
715.4,70143
715.5,70011
715.6,69865
715.7,69712
715.8,69600
715.9,69483
716.0,69320
716.1,69163
716.2,68991
716.3,68833
716.4,68665
716.5,68495
716.6,68371
716.7,68250
716.8,68091
716.9,67943
717.0,67785
717.1,67642
717.2,67488
717.3,67332
717.4,67220
717.5,67109
717.6,66959
717.7,66817
717.8,66666
717.9,66529
718.0,66388
718.1,66298
718.2,66198
718.3,66069
718.4,65948
718.5,65837
718.6,65720
718.7,65617
718.8,65510
718.9,65450
719.0,65380
719.1,65278
719.2,65181
719.3,65092
719.4,64997
719.5,64913
719.6,64825
719.7,64744
719.8,64694
719.9,64650
720.0,64574
720.1,64504
720.2,64431
720.3,64369
720.4,64307
720.5,64253
720.6,64233
720.7,64220
720.8,64175
720.9,64134
721.0,64092
721.1,64054
721.2,64013
721.3,63972
721.4,63959
721.5,63947
721.6,63895
721.7,63845
721.8,63787
721.9,63732
722.0,63671
722.1,63649
722.2,63615
722.3,63550
722.4,63489
722.5,63431
722.6,63370
722.7,63316
722.8,63260
722.9,63248
723.0,63225
723.1,63174
723.2,63125
723.3,63079
723.4,63028
723.5,62981
723.6,62931
723.7,62882
723.8,62861
723.9,62842
724.0,62788
724.1,62737
724.2,62681
724.3,62628
724.4,62571
724.5,62516
724.6,62486
724.7,62460
724.8,62398
724.9,62330
725.0,62259
725.1,62191
725.2,62115
725.3,62041
725.4,61993
725.5,61950
725.6,61873
725.7,61790
725.8,61706
725.9,61627
726.0,61543
726.1,61499
726.2,61442
726.3,61357
726.4,61274
726.5,61183
726.6,61093
726.7,61012
726.8,60927
726.9,60883
727.0,60827
727.1,60744
727.2,60663
727.3,60574
727.4,60483
727.5,60396
727.6,60297
727.7,60198
727.8,60122
727.9,60046
728.0,59937
728.1,59819
728.2,59710
728.3,59592
728.4,59473
728.5,59361
728.6,59278
728.7,59200
728.8,59094
728.9,58980
729.0,58876
729.1,58761
729.2,58652
729.3,58538
729.4,58448
729.5,58365
729.6,58253
729.7,58132
729.8,58019
729.9,57895
730.0,57776
730.1,57683
730.2,57584
730.3,57458
730.4,57323
730.5,57189
730.6,57066
730.7,56932
730.8,56806
730.9,56710
731.0,56611
731.1,56492
731.2,56370
731.3,56260
731.4,56142
731.5,56025
731.6,55916
731.7,55805
731.8,55720
731.9,55650
732.0,55545
732.1,55448
732.2,55346
732.3,55256
732.4,55165
732.5,55079
732.6,55025
732.7,54988
732.8,54919
732.9,54858
733.0,54794
733.1,54738
733.2,54680
733.3,54622
733.4,54590
733.5,54568
733.6,54511
733.7,54458
733.8,54401
733.9,54348
734.0,54293
734.1,54268
734.2,54246
734.3,54195
734.4,54147
734.5,54104
734.6,54058
734.7,54016
734.8,53973
734.9,53960
735.0,53948
735.1,53906
735.2,53866
735.3,53819
735.4,53770
735.5,53723
735.6,53671
735.7,53646
735.8,53617
735.9,53555
736.0,53492
736.1,53418
736.2,53346
736.3,53265
736.4,53181
736.5,53125
736.6,53065
736.7,52973
736.8,52884
736.9,52787
737.0,52698
737.1,52601
737.2,52508
737.3,52435
737.4,52360
737.5,52256
737.6,52157
737.7,52050
737.8,51951
737.9,51844
738.0,51742
738.1,51662
738.2,51587
738.3,51491
738.4,51389
738.5,51291
738.6,51204
738.7,51112
738.8,51025
738.9,50962
739.0,50903
739.1,50822
739.2,50736
739.3,50651
739.4,50577
739.5,50501
739.6,50460
739.7,50413
739.8,50346
739.9,50284
740.0,50230
740.1,50177
740.2,50134
740.3,50091
740.4,50082
740.5,50068
740.6,50035
740.7,50006
740.8,49981
740.9,49957
741.0,49936
741.1,49912
741.2,49886
741.3,49884
741.4,49883
741.5,49855
741.6,49826
741.7,49791
741.8,49758
741.9,49722
742.0,49685
742.1,49675
742.2,49668
742.3,49636
742.4,49607
742.5,49574
742.6,49546
742.7,49516
742.8,49485
742.9,49477
743.0,49467
743.1,49429
743.2,49390
743.3,49346
743.4,49297
743.5,49248
743.6,49191
743.7,49156
743.8,49118
743.9,49050
744.0,48984
744.1,48910
744.2,48832
744.3,48757
744.4,48677
744.5,48622
744.6,48568
744.7,48487
744.8,48406
744.9,48331
745.0,48251
745.1,48178
745.2,48101
745.3,48050
745.4,47999
745.5,47921
745.6,47844
745.7,47771
745.8,47693
745.9,47624
746.0,47550
746.1,47501
746.2,47453
746.3,47379
746.4,47307
746.5,47239
746.6,47166
746.7,47099
746.8,47027
746.9,46977
747.0,46926
747.1,46857
747.2,46787
747.3,46721
747.4,46650
747.5,46587
747.6,46522
747.7,46457
747.8,46415
747.9,46382
748.0,46323
748.1,46269
748.2,46213
748.3,46158
748.4,46108
748.5,46057
748.6,46025
748.7,46001
748.8,45947
748.9,45896
749.0,45839
749.1,45779
749.2,45720
749.3,45656
749.4,45607
749.5,45565
749.6,45491
749.7,45415
749.8,45344
749.9,45267
750.0,45193
750.1,45138
750.2,45080
750.3,45004
750.4,44923
750.5,44845
750.6,44773
750.7,44696
750.8,44621
750.9,44575
751.0,44522
751.1,44450
751.2,44382
751.3,44317
751.4,44247
751.5,44177
751.6,44110
751.7,44038
751.8,43963
751.9,43905
752.0,43853
752.1,43780
752.2,43702
752.3,43625
752.4,43555
752.5,43481
752.6,43409
752.7,43362
752.8,43316
752.9,43248
753.0,43183
753.1,43123
753.2,43059
753.3,42997
753.4,42941
753.5,42885
753.6,42848
753.7,42817
753.8,42767
753.9,42713
754.0,42658
754.1,42608
754.2,42551
754.3,42490
754.4,42448
754.5,42400
754.6,42333
754.7,42261
754.8,42188
754.9,42121
755.0,42049
755.1,41975
755.2,41905
755.3,41852
755.4,41798
755.5,41724
755.6,41653
755.7,41574
755.8,41491
755.9,41413
756.0,41325
756.1,41253
756.2,41180
756.3,41089
756.4,40991
756.5,40894
756.6,40802
756.7,40702
756.8,40601
756.9,40526
757.0,40443
757.1,40340
757.2,40237
757.3,40136
757.4,40042
757.5,39940
757.6,39840
757.7,39749
757.8,39657
757.9,39582
758.0,39515
758.1,39432
758.2,39343
758.3,39255
758.4,39175
758.5,39089
758.6,39003
758.7,38938
758.8,38875
758.9,38792
759.0,38713
759.1,38643
759.2,38572
759.3,38505
759.4,38447
759.5,38389
759.6,38346
759.7,38308
759.8,38253
759.9,38199
760.0,38140
760.1,38079
760.2,38023
760.3,37965
760.4,37926
760.5,37887
760.6,37836
760.7,37785
760.8,37737
760.9,37694
761.0,37649
761.1,37606
761.2,37565
761.3,37541
761.4,37519
761.5,37478
761.6,37439
761.7,37396
761.8,37352
761.9,37311
762.0,37268
762.1,37241
762.2,37210
762.3,37161
762.4,37111
762.5,37055
762.6,36996
762.7,36940
762.8,36878
762.9,36815
763.0,36773
763.1,36731
763.2,36669
763.3,36609
763.4,36555
763.5,36498
763.6,36440
763.7,36385
763.8,36328
763.9,36283
764.0,36241
764.1,36182
764.2,36119
764.3,36062
764.4,36001
764.5,35940
764.6,35904
764.7,35864
764.8,35810
764.9,35760
765.0,35715
765.1,35669
765.2,35625
765.3,35586
765.4,35546
765.5,35508
765.6,35487
765.7,35473
765.8,35440
765.9,35409
766.0,35375
766.1,35341
766.2,35311
766.3,35281
766.4,35267
766.5,35259
766.6,35236
766.7,35214
766.8,35196
766.9,35184
767.0,35177
767.1,35175
767.2,35193
767.3,35213
767.4,35219
767.5,35228
767.6,35239
767.7,35251
767.8,35263
767.9,35275
768.0,35287
768.1,35310
768.2,35337
768.3,35344
768.4,35347
768.5,35347
768.6,35343
768.7,35335
768.8,35324
768.9,35322
769.0,35321
769.1,35299
769.2,35274
769.3,35246
769.4,35221
769.5,35192
769.6,35160
769.7,35141
769.8,35118
769.9,35073
770.0,35024
770.1,34975
770.2,34916
770.3,34856
770.4,34788
770.5,34714
770.6,34653
770.7,34596
770.8,34513
770.9,34427
771.0,34344
771.1,34251
771.2,34152
771.3,34054
771.4,33964
771.5,33866
771.6,33748
771.7,33632
771.8,33503
771.9,33383
772.0,33252
772.1,33117
772.2,33002
772.3,32885
772.4,32747
772.5,32609
772.6,32473
772.7,32348
772.8,32213
772.9,32078
773.0,31948
773.1,31843
773.2,31742
773.3,31628
773.4,31519
773.5,31417
773.6,31321
773.7,31239
773.8,31156
773.9,31077
774.0,31000
774.1,30940
774.2,30890
774.3,30823
774.4,30760
774.5,30702
774.6,30648
774.7,30604
774.8,30563
774.9,30541
775.0,30522
775.1,30496
775.2,30475
775.3,30456
775.4,30441
775.5,30431
775.6,30425
775.7,30421
775.8,30419
775.9,30432
776.0,30452
776.1,30459
776.2,30468
776.3,30478
776.4,30490
776.5,30502
776.6,30513
776.7,30522
776.8,30545
776.9,30569
777.0,30576
777.1,30582
777.2,30586
777.3,30587
777.4,30586
777.5,30582
777.6,30575
777.7,30578
777.8,30576
777.9,30555
778.0,30529
778.1,30497
778.2,30461
778.3,30426
778.4,30385
778.5,30341
778.6,30309
778.7,30276
778.8,30229
778.9,30179
779.0,30129
779.1,30080
779.2,30031
779.3,29983
779.4,29931
779.5,29878
779.6,29836
779.7,29800
779.8,29749
779.9,29694
780.0,29637
780.1,29579
780.2,29517
780.3,29459
780.4,29412
780.5,29359
780.6,29292
780.7,29226
780.8,29163
780.9,29095
781.0,29027
781.1,28958
781.2,28892
781.3,28830
781.4,28781
781.5,28733
781.6,28672
781.7,28612
781.8,28554
781.9,28502
782.0,28450
782.1,28402
782.2,28357
782.3,28330
782.4,28305
782.5,28269
782.6,28237
782.7,28208
782.8,28180
782.9,28154
783.0,28125
783.1,28095
783.2,28063
783.3,28044
783.4,28028
783.5,27995
783.6,27961
783.7,27925
783.8,27889
783.9,27856
784.0,27820
784.1,27797
784.2,27770
784.3,27731
784.4,27693
784.5,27651
784.6,27609
784.7,27566
784.8,27524
784.9,27486
785.0,27447
785.1,27418
785.2,27391
785.3,27350
785.4,27309
785.5,27261
785.6,27210
785.7,27156
785.8,27101
785.9,27061
786.0,27014
786.1,26954
786.2,26895
786.3,26837
786.4,26784
786.5,26727
786.6,26670
786.7,26613
786.8,26555
786.9,26512
787.0,26469
787.1,26409
787.2,26348
787.3,26288
787.4,26230
787.5,26180
787.6,26129
787.7,26081
787.8,26037
787.9,26006
788.0,25981
788.1,25942
788.2,25905
788.3,25868
788.4,25831
788.5,25796
788.6,25759
788.7,25721
788.8,25695
788.9,25673
789.0,25640
789.1,25604
789.2,25566
789.3,25527
789.4,25487
789.5,25448
789.6,25418
789.7,25385
789.8,25339
789.9,25296
790.0,25256
790.1,25214
790.2,25176
790.3,25141
790.4,25106
790.5,25076
790.6,25059
790.7,25042
790.8,25012
790.9,24983
791.0,24956
791.1,24929
791.2,24904
791.3,24881
791.4,24861
791.5,24856
791.6,24852
791.7,24838
791.8,24828
791.9,24819
792.0,24811
792.1,24801
792.2,24789
792.3,24778
792.4,24780
792.5,24782
792.6,24774
792.7,24768
792.8,24763
792.9,24760
793.0,24762
793.1,24766
793.2,24773
793.3,24780
793.4,24799
793.5,24819
793.6,24824
793.7,24829
793.8,24833
793.9,24837
794.0,24839
794.1,24840
794.2,24841
794.3,24852
794.4,24865
794.5,24862
794.6,24857
794.7,24852
794.8,24842
794.9,24830
795.0,24815
795.1,24797
795.2,24775
795.3,24764
795.4,24755
795.5,24731
795.6,24708
795.7,24680
795.8,24647
795.9,24612
796.0,24572
796.1,24528
796.2,24480
796.3,24440
796.4,24396
796.5,24334
796.6,24268
796.7,24200
796.8,24130
796.9,24057
797.0,23982
797.1,23910
797.2,23832
797.3,23758
797.4,23683
797.5,23590
797.6,23492
797.7,23389
797.8,23281
797.9,23170
798.0,23055
798.1,22936
798.2,22816
798.3,22694
798.4,22581
798.5,22471
798.6,22350
798.7,22234
798.8,22108
798.9,21981
799.0,21855
799.1,21730
799.2,21607
799.3,21486
799.4,21378
799.5,21275
799.6,21159
799.7,21046
799.8,20936
799.9,20828
800.0,20722