nm,INT
500.0,0
500.1,0
500.2,0
500.3,0
500.4,0
500.5,0
500.6,0
500.7,0
500.8,0
500.9,0
501.0,0
501.1,0
501.2,0
501.3,0
501.4,0
501.5,0
501.6,0
501.7,0
501.8,0
501.9,0
502.0,0
502.1,0
502.2,0
502.3,0
502.4,0
502.5,0
502.6,0
502.7,0
502.8,0
502.9,0
503.0,0
503.1,0
503.2,0
503.3,0
503.4,0
503.5,0
503.6,0
503.7,0
503.8,0
503.9,0
504.0,0
504.1,0
504.2,0
504.3,0
504.4,0
504.5,0
504.6,0
504.7,0
504.8,0
504.9,0
505.0,0
505.1,0
505.2,0
505.3,0
505.4,0
505.5,0
505.6,0
505.7,0
505.8,0
505.9,0
506.0,0
506.1,0
506.2,0
506.3,0
506.4,0
506.5,0
506.6,0
506.7,0
506.8,0
506.9,0
507.0,0
507.1,0
507.2,0
507.3,0
507.4,0
507.5,0
507.6,0
507.7,0
507.8,0
507.9,0
508.0,0
508.1,0
508.2,0
508.3,0
508.4,0
508.5,0
508.6,0
508.7,0
508.8,0
508.9,0
509.0,0
509.1,0
509.2,0
509.3,0
509.4,0
509.5,0
509.6,0
509.7,0
509.8,0
509.9,0
510.0,0
510.1,0
510.2,0
510.3,0
510.4,0
510.5,0
510.6,0
510.7,0
510.8,0
510.9,0
511.0,0
511.1,0
511.2,0
511.3,0
511.4,0
511.5,0
511.6,0
511.7,0
511.8,0
511.9,0
512.0,0
512.1,0
512.2,0
512.3,0
512.4,0
512.5,0
512.6,0
512.7,0
512.8,0
512.9,0
513.0,0
513.1,0
513.2,0
513.3,0
513.4,0
513.5,0
513.6,0
513.7,0
513.8,0
513.9,0
514.0,0
514.1,0
514.2,0
514.3,0
514.4,0
514.5,0
514.6,0
514.7,0
514.8,0
514.9,0
515.0,0
515.1,0
515.2,0
515.3,0
515.4,0
515.5,0
515.6,0
515.7,0
515.8,0
515.9,0
516.0,0
516.1,0
516.2,0
516.3,0
516.4,0
516.5,0
516.6,0
516.7,0
516.8,0
516.9,0
517.0,0
517.1,0
517.2,0
517.3,0
517.4,0
517.5,0
517.6,0
517.7,0
517.8,0
517.9,0
518.0,0
518.1,0
518.2,0
518.3,0
518.4,0
518.5,0
518.6,0
518.7,0
518.8,0
518.9,0
519.0,0
519.1,0
519.2,0
519.3,0
519.4,0
519.5,0
519.6,0
519.7,0
519.8,0
519.9,0
520.0,0
520.1,0
520.2,0
520.3,0
520.4,0
520.5,0
520.6,0
520.7,0
520.8,0
520.9,0
521.0,0
521.1,0
521.2,0
521.3,0
521.4,0
521.5,0
521.6,0
521.7,0
521.8,0
521.9,0
522.0,0
522.1,0
522.2,0
522.3,0
522.4,0
522.5,0
522.6,0
522.7,0
522.8,0
522.9,0
523.0,0
523.1,0
523.2,0
523.3,0
523.4,0
523.5,0
523.6,0
523.7,1
523.8,2
523.9,2
524.0,4
524.1,5
524.2,7
524.3,9
524.4,11
524.5,13
524.6,16
524.7,19
524.8,22
524.9,26
525.0,29
525.1,33
525.2,36
525.3,40
525.4,44
525.5,48
525.6,53
525.7,57
525.8,62
525.9,67
526.0,72
526.1,77
526.2,83
526.3,88
526.4,95
526.5,101
526.6,107
526.7,114
526.8,120
526.9,128
527.0,135
527.1,142
527.2,149
527.3,157
527.4,164
527.5,171
527.6,179
527.7,186
527.8,194
527.9,202
528.0,209
528.1,217
528.2,225
528.3,233
528.4,241
528.5,249
528.6,257
528.7,266
528.8,274
528.9,282
529.0,289
529.1,297
529.2,305
529.3,312
529.4,319
529.5,326
529.6,332
529.7,339
529.8,345
529.9,352
530.0,358
530.1,365
530.2,371
530.3,378
530.4,385
530.5,392
530.6,399
530.7,407
530.8,414
530.9,421
531.0,428
531.1,436
531.2,443
531.3,450
531.4,456
531.5,463
531.6,470
531.7,476
531.8,483
531.9,490
532.0,497
532.1,504
532.2,512
532.3,519
532.4,527
532.5,535
532.6,544
532.7,553
532.8,562
532.9,571
533.0,581
533.1,591
533.2,601
533.3,611
533.4,622
533.5,632
533.6,643
533.7,653
533.8,663
533.9,674
534.0,684
534.1,694
534.2,705
534.3,715
534.4,725
534.5,735
534.6,745
534.7,756
534.8,766
534.9,777
535.0,787
535.1,797
535.2,807
535.3,817
535.4,826
535.5,835
535.6,844
535.7,853
535.8,861
535.9,869
536.0,877
536.1,885
536.2,893
536.3,901
536.4,909
536.5,916
536.6,924
536.7,931
536.8,938
536.9,944
537.0,951
537.1,957
537.2,962
537.3,968
537.4,973
537.5,978
537.6,983
537.7,988
537.8,992
537.9,997
538.0,1001
538.1,1004
538.2,1008
538.3,1011
538.4,1015
538.5,1018
538.6,1021
538.7,1024
538.8,1026
538.9,1028
539.0,1031
539.1,1033
539.2,1035
539.3,1037
539.4,1038
539.5,1040
539.6,1041
539.7,1042
539.8,1043
539.9,1043
540.0,1044
540.1,1044
540.2,1045
540.3,1046
540.4,1046
540.5,1047
540.6,1048
540.7,1049
540.8,1051
540.9,1052
541.0,1053
541.1,1054
541.2,1055
541.3,1056
541.4,1056
541.5,1057
541.6,1057
541.7,1057
541.8,1057
541.9,1057
542.0,1057
542.1,1057
542.2,1056
542.3,1056
542.4,1056
542.5,1056
542.6,1055
542.7,1055
542.8,1055
542.9,1055
543.0,1055
543.1,1055
543.2,1056
543.3,1056
543.4,1057
543.5,1058
543.6,1059
543.7,1060
543.8,1061
543.9,1063
544.0,1064
544.1,1065
544.2,1067
544.3,1069
544.4,1070
544.5,1072
544.6,1074
544.7,1076
544.8,1078
544.9,1081
545.0,1084
545.1,1087
545.2,1090
545.3,1094
545.4,1098
545.5,1103
545.6,1108
545.7,1113
545.8,1119
545.9,1125
546.0,1131
546.1,1137
546.2,1144
546.3,1151
546.4,1158
546.5,1166
546.6,1175
546.7,1184
546.8,1194
546.9,1204
547.0,1214
547.1,1224
547.2,1235
547.3,1245
547.4,1255
547.5,1265
547.6,1275
547.7,1285
547.8,1296
547.9,1306
548.0,1316
548.1,1327
548.2,1338
548.3,1349
548.4,1362
548.5,1373
548.6,1385
548.7,1397
548.8,1409
548.9,1422
549.0,1435
549.1,1448
549.2,1462
549.3,1475
549.4,1489
549.5,1504
549.6,1519
549.7,1534
549.8,1549
549.9,1564
550.0,1580
550.1,1594
550.2,1610
550.3,1625
550.4,1640
550.5,1654
550.6,1669
550.7,1684
550.8,1700
550.9,1716
551.0,1732
551.1,1749
551.2,1766
551.3,1783
551.4,1802
551.5,1820
551.6,1838
551.7,1856
551.8,1873
551.9,1891
552.0,1910
552.1,1929
552.2,1947
552.3,1965
552.4,1984
552.5,2003
552.6,2022
552.7,2042
552.8,2063
552.9,2082
553.0,2102
553.1,2121
553.2,2140
553.3,2159
553.4,2179
553.5,2198
553.6,2217
553.7,2236
553.8,2256
553.9,2276
554.0,2297
554.1,2317
554.2,2338
554.3,2359
554.4,2381
554.5,2404
554.6,2426
554.7,2449
554.8,2472
554.9,2496
555.0,2520
555.1,2545
555.2,2570
555.3,2595
555.4,2620
555.5,2645
555.6,2671
555.7,2697
555.8,2722
555.9,2748
556.0,2773
556.1,2799
556.2,2824
556.3,2850
556.4,2877
556.5,2903
556.6,2930
556.7,2958
556.8,2986
556.9,3015
557.0,3046
557.1,3077
557.2,3111
557.3,3143
557.4,3175
557.5,3208
557.6,3241
557.7,3272
557.8,3304
557.9,3335
558.0,3366
558.1,3397
558.2,3429
558.3,3459
558.4,3489
558.5,3520
558.6,3550
558.7,3582
558.8,3614
558.9,3645
559.0,3676
559.1,3707
559.2,3739
559.3,3771
559.4,3803
559.5,3835
559.6,3866
559.7,3898
559.8,3929
559.9,3962
560.0,3995
560.1,4027
560.2,4059
560.3,4091
560.4,4123
560.5,4157
560.6,4190
560.7,4222
560.8,4254
560.9,4286
561.0,4318
561.1,4351
561.2,4384
561.3,4416
561.4,4448
561.5,4480
561.6,4513
561.7,4545
561.8,4577
561.9,4609
562.0,4639
562.1,4669
562.2,4699
562.3,4728
562.4,4759
562.5,4791
562.6,4821
562.7,4852
562.8,4884
562.9,4919
563.0,4953
563.1,4988
563.2,5023
563.3,5059
563.4,5095
563.5,5132
563.6,5170
563.7,5210
563.8,5247
563.9,5285
564.0,5323
564.1,5364
564.2,5404
564.3,5444
564.4,5484
564.5,5524
564.6,5566
564.7,5608
564.8,5652
564.9,5697
565.0,5742
565.1,5786
565.2,5832
565.3,5878
565.4,5926
565.5,5975
565.6,6022
565.7,6071
565.8,6119
565.9,6172
566.0,6226
566.1,6279
566.2,6330
566.3,6382
566.4,6434
566.5,6487
566.6,6543
566.7,6598
566.8,6653
566.9,6708
567.0,6763
567.1,6818
567.2,6876
567.3,6934
567.4,6991
567.5,7048
567.6,7104
567.7,7161
567.8,7220
567.9,7278
568.0,7334
568.1,7390
568.2,7446
568.3,7502
568.4,7559
568.5,7616
568.6,7671
568.7,7726
568.8,7781
568.9,7836
569.0,7894
569.1,7951
569.2,8007
569.3,8063
569.4,8119
569.5,8175
569.6,8233
569.7,8290
569.8,8346
569.9,8402
570.0,8459
570.1,8514
570.2,8572
570.3,8631
570.4,8690
570.5,8745
570.6,8800
570.7,8855
570.8,8909
570.9,8964
571.0,9018
571.1,9070
571.2,9122
571.3,9174
571.4,9228
571.5,9282
571.6,9334
571.7,9386
571.8,9439
571.9,9492
572.0,9546
572.1,9602
572.2,9660
572.3,9715
572.4,9771
572.5,9827
572.6,9885
572.7,9943
572.8,10000
572.9,10056
573.0,10112
573.1,10167
573.2,10222
573.3,10278
573.4,10334
573.5,10387
573.6,10439
573.7,10490
573.8,10541
573.9,10593
574.0,10645
574.1,10695
574.2,10744
574.3,10793
574.4,10845
574.5,10896
574.6,10945
574.7,10995
574.8,11049
574.9,11098
575.0,11148
575.1,11201
575.2,11254
575.3,11304
575.4,11355
575.5,11407
575.6,11458
575.7,11512
575.8,11567
575.9,11619
576.0,11672
576.1,11726
576.2,11780
576.3,11837
576.4,11894
576.5,11949
576.6,12005
576.7,12062
576.8,12119
576.9,12179
577.0,12240
577.1,12297
577.2,12351
577.3,12410
577.4,12470
577.5,12531
577.6,12593
577.7,12655
577.8,12714
577.9,12782
578.0,12848
578.1,12912
578.2,12982
578.3,13047
578.4,13120
578.5,13195
578.6,13266
578.7,13333
578.8,13406
578.9,13479
579.0,13552
579.1,13625
579.2,13698
579.3,13776
579.4,13847
579.5,13918
579.6,13992
579.7,14068
579.8,14141
579.9,14209
580.0,14276
580.1,14343
580.2,14412
580.3,14483
580.4,14551
580.5,14614
580.6,14677
580.7,14744
580.8,14805
580.9,14870
581.0,14932
581.1,14992
581.2,15052
581.3,15108
581.4,15161
581.5,15216
581.6,15273
581.7,15325
581.8,15373
581.9,15419
582.0,15469
582.1,15513
582.2,15557
582.3,15604
582.4,15652
582.5,15696
582.6,15737
582.7,15778
582.8,15818
582.9,15860
583.0,15906
583.1,15951
583.2,15991
583.3,16034
583.4,16075
583.5,16117
583.6,16165
583.7,16215
583.8,16261
583.9,16306
584.0,16352
584.1,16398
584.2,16449
584.3,16498
584.4,16551
584.5,16606
584.6,16656
584.7,16711
584.8,16763
584.9,16815
585.0,16874
585.1,16936
585.2,16995
585.3,17051
585.4,17108
585.5,17171
585.6,17231
585.7,17297
585.8,17365
585.9,17428
586.0,17496
586.1,17560
586.2,17625
586.3,17690
586.4,17766
586.5,17845
586.6,17914
586.7,17982
586.8,18051
586.9,18125
587.0,18195
587.1,18269
587.2,18346
587.3,18419
587.4,18486
587.5,18552
587.6,18618
587.7,18687
587.8,18762
587.9,18836
588.0,18901
588.1,18966
588.2,19035
588.3,19100
588.4,19169
588.5,19237
588.6,19298
588.7,19362
588.8,19420
588.9,19476
589.0,19531
589.1,19594
589.2,19658
589.3,19710
589.4,19762
589.5,19817
589.6,19867
589.7,19916
589.8,19970
589.9,20027
590.0,20077
590.1,20123
590.2,20168
590.3,20213
590.4,20269
590.5,20323
590.6,20367
590.7,20412
590.8,20456
590.9,20503
591.0,20547
591.1,20597
591.2,20648
591.3,20691
591.4,20730
591.5,20769
591.6,20807
591.7,20848
591.8,20895
591.9,20942
592.0,20982
592.1,21022
592.2,21066
592.3,21108
592.4,21159
592.5,21209
592.6,21252
592.7,21297
592.8,21340
592.9,21384
593.0,21430
593.1,21485
593.2,21537
593.3,21582
593.4,21629
593.5,21681
593.6,21730
593.7,21779
593.8,21837
593.9,21898
594.0,21951
594.1,22001
594.2,22052
594.3,22103
594.4,22158
594.5,22220
594.6,22280
594.7,22333
594.8,22388
594.9,22448
595.0,22505
595.1,22572
595.2,22639
595.3,22699
595.4,22757
595.5,22815
595.6,22873
595.7,22936
595.8,22996
595.9,23062
596.0,23131
596.1,23191
596.2,23257
596.3,23317
596.4,23377
596.5,23446
596.6,23516
596.7,23578
596.8,23635
596.9,23691
597.0,23749
597.1,23803
597.2,23863
597.3,23922
597.4,23971
597.5,24023
597.6,24070
597.7,24115
597.8,24158
597.9,24211
598.0,24264
598.1,24304
598.2,24342
598.3,24378
598.4,24415
598.5,24448
598.6,24487
598.7,24528
598.8,24557
598.9,24586
599.0,24612
599.1,24637
599.2,24662
599.3,24693
599.4,24726
599.5,24745
599.6,24764
599.7,24782
599.8,24798
599.9,24823
600.0,24846
600.1,24860
600.2,24874
600.3,24885
600.4,24897
600.5,24908
600.6,24928
600.7,24949
600.8,24959
600.9,24970
601.0,24980
601.1,24991
601.2,25001
601.3,25020
601.4,25043
601.5,25057
601.6,25070
601.7,25085
601.8,25100
601.9,25127
602.0,25154
602.1,25173
602.2,25192
602.3,25212
602.4,25234
602.5,25256
602.6,25288
602.7,25321
602.8,25346
602.9,25373
603.0,25399
603.1,25426
603.2,25455
603.3,25494
603.4,25532
603.5,25561
603.6,25589
603.7,25621
603.8,25650
603.9,25690
604.0,25726
604.1,25755
604.2,25784
604.3,25811
604.4,25838
604.5,25864
604.6,25902
604.7,25937
604.8,25962
604.9,25986
605.0,26012
605.1,26035
605.2,26057
605.3,26089
605.4,26120
605.5,26142
605.6,26162
605.7,26181
605.8,26200
605.9,26220
606.0,26248
606.1,26275
606.2,26291
606.3,26307
606.4,26322
606.5,26336
606.6,26360
606.7,26380
606.8,26392
606.9,26404
607.0,26415
607.1,26426
607.2,26437
607.3,26448
607.4,26468
607.5,26491
607.6,26502
607.7,26515
607.8,26526
607.9,26537
608.0,26558
608.1,26580
608.2,26593
608.3,26605
608.4,26617
608.5,26630
608.6,26645
608.7,26671
608.8,26697
608.9,26713
609.0,26730
609.1,26746
609.2,26761
609.3,26776
609.4,26800
609.5,26825
609.6,26837
609.7,26848
609.8,26858
609.9,26868
610.0,26877
610.1,26893
610.2,26913
610.3,26919
610.4,26925
610.5,26930
610.6,26935
610.7,26948
610.8,26961
610.9,26962
611.0,26962
611.1,26961
611.2,26958
611.3,26955
611.4,26962
611.5,26967
611.6,26960
611.7,26951
611.8,26942
611.9,26932
612.0,26921
612.1,26918
612.2,26916
612.3,26903
612.4,26890
612.5,26877
612.6,26863
612.7,26850
612.8,26845
612.9,26845
613.0,26831
613.1,26818
613.2,26806
613.3,26793
613.4,26790
613.5,26786
613.6,26772
613.7,26759
613.8,26747
613.9,26733
614.0,26720
614.1,26719
614.2,26718
614.3,26707
614.4,26695
614.5,26685
614.6,26675
614.7,26666
614.8,26666
614.9,26668
615.0,26659
615.1,26651
615.2,26642
615.3,26632
615.4,26633
615.5,26629
615.6,26617
615.7,26602
615.8,26588
615.9,26572
616.0,26555
616.1,26547
616.2,26537
616.3,26519
616.4,26501
616.5,26484
616.6,26465
616.7,26447
616.8,26440
616.9,26431
617.0,26411
617.1,26392
617.2,26371
617.3,26350
617.4,26327
617.5,26314
617.6,26300
617.7,26276
617.8,26252
617.9,26225
618.0,26201
618.1,26188
618.2,26172
618.3,26147
618.4,26121
618.5,26097
618.6,26073
618.7,26050
618.8,26028
618.9,26015
619.0,26007
619.1,25988
619.2,25969
619.3,25952
619.4,25937
619.5,25932
619.6,25927
619.7,25912
619.8,25898
619.9,25883
620.0,25868
620.1,25853
620.2,25849
620.3,25845
620.4,25833
620.5,25821
620.6,25808
620.7,25798
620.8,25788
620.9,25787
621.0,25787
621.1,25778
621.2,25769
621.3,25760
621.4,25750
621.5,25740
621.6,25738
621.7,25738
621.8,25728
621.9,25716
622.0,25705
622.1,25693
622.2,25691
622.3,25687
622.4,25673
622.5,25659
622.6,25646
622.7,25632
622.8,25617
622.9,25611
623.0,25604
623.1,25588
623.2,25570
623.3,25553
623.4,25535
623.5,25517
623.6,25504
623.7,25490
623.8,25467
623.9,25442
624.0,25416
624.1,25387
624.2,25357
624.3,25334
624.4,25312
624.5,25279
624.6,25241
624.7,25207
624.8,25173
624.9,25145
625.0,25117
625.1,25082
625.2,25048
625.3,25014
625.4,24978
625.5,24945
625.6,24923
625.7,24900
625.8,24868
625.9,24834
626.0,24802
626.1,24770
626.2,24737
626.3,24710
626.4,24684
626.5,24650
626.6,24615
626.7,24579
626.8,24541
626.9,24514
627.0,24485
627.1,24449
627.2,24412
627.3,24379
627.4,24347
627.5,24315
627.6,24292
627.7,24268
627.8,24240
627.9,24212
628.0,24185
628.1,24157
628.2,24130
628.3,24111
628.4,24092
628.5,24064
628.6,24033
628.7,24005
628.8,23976
628.9,23945
629.0,23922
629.1,23901
629.2,23872
629.3,23844
629.4,23814
629.5,23787
629.6,23769
629.7,23750
629.8,23723
629.9,23695
630.0,23671
630.1,23647
630.2,23625
630.3,23602
630.4,23586
630.5,23576
630.6,23557
630.7,23540
630.8,23523
630.9,23507
631.0,23499
631.1,23491
631.2,23474
631.3,23459
631.4,23445
631.5,23432
631.6,23417
631.7,23412
631.8,23407
631.9,23394
632.0,23382
632.1,23369
632.2,23355
632.3,23341
632.4,23332
632.5,23324
632.6,23305
632.7,23285
632.8,23263
632.9,23239
633.0,23216
633.1,23200
633.2,23187
633.3,23166
633.4,23143
633.5,23123
633.6,23103
633.7,23091
633.8,23078
633.9,23057
634.0,23037
634.1,23016
634.2,22993
634.3,22969
634.4,22952
634.5,22936
634.6,22912
634.7,22887
634.8,22859
634.9,22833
635.0,22806
635.1,22783
635.2,22761
635.3,22730
635.4,22699
635.5,22667
635.6,22633
635.7,22600
635.8,22575
635.9,22553
636.0,22522
636.1,22489
636.2,22458
636.3,22428
636.4,22406
636.5,22381
636.6,22348
636.7,22315
636.8,22280
636.9,22241
637.0,22203
637.1,22172
637.2,22142
637.3,22103
637.4,22061
637.5,22023
637.6,21985
637.7,21947
637.8,21914
637.9,21882
638.0,21843
638.1,21805
638.2,21765
638.3,21723
638.4,21691
638.5,21658
638.6,21619
638.7,21580
638.8,21538
638.9,21501
639.0,21465
639.1,21435
639.2,21405
639.3,21370
639.4,21334
639.5,21299
639.6,21260
639.7,21224
639.8,21194
639.9,21165
640.0,21129
640.1,21091
640.2,21056
640.3,21021
640.4,20994
640.5,20964
640.6,20928
640.7,20893
640.8,20859
640.9,20822
641.0,20787
641.1,20761
641.2,20732
641.3,20697
641.4,20661
641.5,20628
641.6,20596
641.7,20564
641.8,20530
641.9,20502
642.0,20477
642.1,20444
642.2,20411
642.3,20374
642.4,20338
642.5,20308
642.6,20278
642.7,20239
642.8,20198
642.9,20160
643.0,20123
643.1,20083
643.2,20051
643.3,20021
643.4,19985
643.5,19950
643.6,19912
643.7,19878
643.8,19844
643.9,19816
644.0,19790
644.1,19754
644.2,19722
644.3,19689
644.4,19656
644.5,19620
644.6,19591
644.7,19564
644.8,19529
644.9,19491
645.0,19455
645.1,19418
645.2,19387
645.3,19355
645.4,19315
645.5,19277
645.6,19239
645.7,19200
645.8,19158
645.9,19123
646.0,19090
646.1,19051
646.2,19013
646.3,18971
646.4,18932
646.5,18894
646.6,18862
646.7,18832
646.8,18795
646.9,18760
647.0,18726
647.1,18689
647.2,18654
647.3,18624
647.4,18597
647.5,18563
647.6,18525
647.7,18491
647.8,18456
647.9,18426
648.0,18396
648.1,18359
648.2,18324
648.3,18289
648.4,18253
648.5,18215
648.6,18184
648.7,18155
648.8,18118
648.9,18080
649.0,18045
649.1,18010
649.2,17977
649.3,17948
649.4,17920
649.5,17888
649.6,17856
649.7,17824
649.8,17791
649.9,17767
650.0,17741
650.1,17710
650.2,17678
650.3,17643
650.4,17610
650.5,17578
650.6,17552
650.7,17524
650.8,17489
650.9,17456
651.0,17420
651.1,17382
651.2,17345
651.3,17314
651.4,17282
651.5,17242
651.6,17198
651.7,17155
651.8,17113
651.9,17077
652.0,17039
652.1,16996
652.2,16956
652.3,16917
652.4,16878
652.5,16837
652.6,16805
652.7,16772
652.8,16734
652.9,16694
653.0,16656
653.1,16617
653.2,16576
653.3,16533
653.4,16494
653.5,16459
653.6,16417
653.7,16374
653.8,16328
653.9,16283
654.0,16244
654.1,16203
654.2,16156
654.3,16107
654.4,16061
654.5,16015
654.6,15975
654.7,15931
654.8,15881
654.9,15835
655.0,15789
655.1,15741
655.2,15696
655.3,15652
655.4,15611
655.5,15571
655.6,15521
655.7,15473
655.8,15426
655.9,15379
656.0,15329
656.1,15284
656.2,15242
656.3,15195
656.4,15149
656.5,15100
656.6,15056
656.7,15019
656.8,14982
656.9,14938
657.0,14896
657.1,14855
657.2,14815
657.3,14772
657.4,14735
657.5,14700
657.6,14660
657.7,14619
657.8,14575
657.9,14535
658.0,14497
658.1,14464
658.2,14432
658.3,14394
658.4,14360
658.5,14328
658.6,14297
658.7,14266
658.8,14242
658.9,14223
659.0,14199
659.1,14174
659.2,14154
659.3,14134
659.4,14121
659.5,14108
659.6,14090
659.7,14073
659.8,14057
659.9,14040
660.0,14023
660.1,14011
660.2,14000
660.3,13985
660.4,13970
660.5,13955
660.6,13942
660.7,13930
660.8,13922
660.9,13916
661.0,13906
661.1,13897
661.2,13888
661.3,13879
661.4,13876
661.5,13871
661.6,13862
661.7,13852
661.8,13840
661.9,13829
662.0,13816
662.1,13808
662.2,13798
662.3,13781
662.4,13763
662.5,13744
662.6,13724
662.7,13702
662.8,13684
662.9,13667
663.0,13642
663.1,13616
663.2,13591
663.3,13564
663.4,13542
663.5,13516
663.6,13484
663.7,13452
663.8,13419
663.9,13384
664.0,13345
664.1,13313
664.2,13278
664.3,13239
664.4,13199
664.5,13155
664.6,13115
664.7,13074
664.8,13031
664.9,12992
665.0,12957
665.1,12916
665.2,12874
665.3,12830
665.4,12788
665.5,12751
665.6,12715
665.7,12672
665.8,12626
665.9,12585
666.0,12543
666.1,12507
666.2,12468
666.3,12425
666.4,12384
666.5,12343
666.6,12303
666.7,12262
666.8,12224
666.9,12193
667.0,12165
667.1,12131
667.2,12102
667.3,12075
667.4,12049
667.5,12024
667.6,12004
667.7,11989
667.8,11968
667.9,11947
668.0,11925
668.1,11905
668.2,11891
668.3,11877
668.4,11859
668.5,11840
668.6,11824
668.7,11808
668.8,11791
668.9,11780
669.0,11770
669.1,11755
669.2,11740
669.3,11722
669.4,11706
669.5,11689
669.6,11676
669.7,11664
669.8,11645
669.9,11627
670.0,11609
670.1,11590
670.2,11568
670.3,11551
670.4,11535
670.5,11513
670.6,11490
670.7,11464
670.8,11438
670.9,11417
671.0,11394
671.1,11365
671.2,11337
671.3,11308
671.4,11279
671.5,11247
671.6,11220
671.7,11192
671.8,11160
671.9,11126
672.0,11088
672.1,11053
672.2,11018
672.3,10987
672.4,10958
672.5,10921
672.6,10888
672.7,10855
672.8,10821
672.9,10796
673.0,10770
673.1,10741
673.2,10712
673.3,10680
673.4,10652
673.5,10623
673.6,10600
673.7,10576
673.8,10546
673.9,10517
674.0,10488
674.1,10460
674.2,10431
674.3,10407
674.4,10385
674.5,10358
674.6,10332
674.7,10304
674.8,10279
674.9,10262
675.0,10242
675.1,10220
675.2,10199
675.3,10178
675.4,10158
675.5,10138
675.6,10124
675.7,10109
675.8,10090
675.9,10070
676.0,10048
676.1,10027
676.2,10005
676.3,9988
676.4,9968
676.5,9943
676.6,9918
676.7,9892
676.8,9863
676.9,9835
677.0,9811
677.1,9787
677.2,9757
677.3,9724
677.4,9693
677.5,9662
677.6,9635
677.7,9605
677.8,9570
677.9,9536
678.0,9503
678.1,9469
678.2,9433
678.3,9398
678.4,9369
678.5,9340
678.6,9306
678.7,9270
678.8,9238
678.9,9205
679.0,9171
679.1,9141
679.2,9115
679.3,9083
679.4,9052
679.5,9019
679.6,8988
679.7,8963
679.8,8938
679.9,8908
680.0,8877
680.1,8849
680.2,8822
680.3,8795
680.4,8772
680.5,8749
680.6,8724
680.7,8699
680.8,8674
680.9,8651
681.0,8629
681.1,8611
681.2,8596
681.3,8575
681.4,8556
681.5,8540
681.6,8524
681.7,8508
681.8,8495
681.9,8484
682.0,8468
682.1,8452
682.2,8433
682.3,8414
682.4,8400
682.5,8384
682.6,8362
682.7,8337
682.8,8314
682.9,8289
683.0,8263
683.1,8241
683.2,8219
683.3,8192
683.4,8165
683.5,8135
683.6,8108
683.7,8081
683.8,8057
683.9,8035
684.0,8006
684.1,7980
684.2,7953
684.3,7927
684.4,7904
684.5,7881
684.6,7854
684.7,7826
684.8,7795
684.9,7765
685.0,7735
685.1,7707
685.2,7678
685.3,7644
685.4,7612
685.5,7580
685.6,7549
685.7,7517
685.8,7489
685.9,7463
686.0,7433
686.1,7404
686.2,7372
686.3,7343
686.4,7318
686.5,7292
686.6,7261
686.7,7230
686.8,7201
686.9,7172
687.0,7143
687.1,7119
687.2,7095
687.3,7069
687.4,7043
687.5,7015
687.6,6990
687.7,6964
687.8,6943
687.9,6920
688.0,6893
688.1,6868
688.2,6844
688.3,6820
688.4,6795
688.5,6774
688.6,6755
688.7,6732
688.8,6708
688.9,6686
689.0,6664
689.1,6646
689.2,6627
689.3,6604
689.4,6583
689.5,6563
689.6,6544
689.7,6524
689.8,6507
689.9,6494
690.0,6483
690.1,6469
690.2,6455
690.3,6442
690.4,6428
690.5,6417
690.6,6406
690.7,6390
690.8,6376
690.9,6361
691.0,6345
691.1,6330
691.2,6320
691.3,6310
691.4,6298
691.5,6287
691.6,6277
691.7,6268
691.8,6258
691.9,6252
692.0,6246
692.1,6237
692.2,6228
692.3,6220
692.4,6211
692.5,6202
692.6,6197
692.7,6193
692.8,6186
692.9,6179
693.0,6173
693.1,6167
693.2,6159
693.3,6154
693.4,6148
693.5,6138
693.6,6127
693.7,6115
693.8,6102
693.9,6093
694.0,6083
694.1,6070
694.2,6055
694.3,6041
694.4,6027
694.5,6013
694.6,6001
694.7,5989
694.8,5973
694.9,5957
695.0,5937
695.1,5919
695.2,5901
695.3,5885
695.4,5870
695.5,5851
695.6,5832
695.7,5813
695.8,5794
695.9,5777
696.0,5760
696.1,5740
696.2,5720
696.3,5700
696.4,5677
696.5,5655
696.6,5636
696.7,5617
696.8,5597
696.9,5577
697.0,5558
697.1,5537
697.2,5518
697.3,5499
697.4,5483
697.5,5468
697.6,5451
697.7,5433
697.8,5416
697.9,5398
698.0,5382
698.1,5366
698.2,5351
698.3,5340
698.4,5331
698.5,5319
698.6,5308
698.7,5297
698.8,5287
698.9,5277
699.0,5267
699.1,5259
699.2,5253
699.3,5242
699.4,5231
699.5,5220
699.6,5209
699.7,5198
699.8,5190
699.9,5182
700.0,5171
700.1,5160
700.2,5150
700.3,5138
700.4,5129
700.5,5118
700.6,5111
700.7,5104
700.8,5092
700.9,5079
701.0,5067
701.1,5053
701.2,5040
701.3,5025
701.4,5012
701.5,4999
701.6,4982
701.7,4965
701.8,4949
701.9,4931
702.0,4914
702.1,4896
702.2,4881
702.3,4865
702.4,4845
702.5,4825
702.6,4806
702.7,4783
702.8,4762
702.9,4739
703.0,4720
703.1,4699
703.2,4674
703.3,4650
703.4,4627
703.5,4600
703.6,4576
703.7,4550
703.8,4528
703.9,4505
704.0,4479
704.1,4455
704.2,4433
704.3,4411
704.4,4392
704.5,4373
704.6,4358
704.7,4344
704.8,4329
704.9,4315
705.0,4302
705.1,4288
705.2,4275
705.3,4261
705.4,4251
705.5,4240
705.6,4227
705.7,4216
705.8,4205
705.9,4194
706.0,4185
706.1,4177
706.2,4172
706.3,4168
706.4,4161
706.5,4155
706.6,4150
706.7,4145
706.8,4142
706.9,4138
707.0,4138
707.1,4138
707.2,4138
707.3,4140
707.4,4143
707.5,4147
707.6,4150
707.7,4155
707.8,4162
707.9,4170
708.0,4176
708.1,4181
708.2,4187
708.3,4192
708.4,4196
708.5,4202
708.6,4209
708.7,4217
708.8,4222
708.9,4226
709.0,4231
709.1,4235
709.2,4238
709.3,4241
709.4,4246
709.5,4250
709.6,4251
709.7,4251
709.8,4251
709.9,4251
710.0,4249
710.1,4247
710.2,4247
710.3,4247
710.4,4243
710.5,4238
710.6,4233
710.7,4225
710.8,4217
710.9,4207
711.0,4199
711.1,4189
711.2,4176
711.3,4163
711.4,4147
711.5,4130
711.6,4113
711.7,4095
711.8,4079
711.9,4061
712.0,4040
712.1,4018
712.2,3994
712.3,3971
712.4,3946
712.5,3919
712.6,3895
712.7,3871
712.8,3844
712.9,3819
713.0,3792
713.1,3768
713.2,3742
713.3,3716
713.4,3694
713.5,3671
713.6,3646
713.7,3622
713.8,3595
713.9,3570
714.0,3542
714.1,3513
714.2,3487
714.3,3460
714.4,3432
714.5,3404
714.6,3374
714.7,3348
714.8,3319
714.9,3290
715.0,3265
715.1,3241
715.2,3214
715.3,3189
715.4,3162
715.5,3139
715.6,3114
715.7,3090
715.8,3070
715.9,3050
716.0,3029
716.1,3009
716.2,2987
716.3,2967
716.4,2946
716.5,2925
716.6,2906
716.7,2888
716.8,2868
716.9,2849
717.0,2828
717.1,2810
717.2,2790
717.3,2771
717.4,2754
717.5,2738
717.6,2719
717.7,2701
717.8,2681
717.9,2663
718.0,2644
718.1,2628
718.2,2611
718.3,2593
718.4,2576
718.5,2560
718.6,2544
718.7,2529
718.8,2514
718.9,2502
719.0,2488
719.1,2472
719.2,2456
719.3,2441
719.4,2425
719.5,2410
719.6,2393
719.7,2378
719.8,2363
719.9,2348
720.0,2332
720.1,2317
720.2,2301
720.3,2287
720.4,2272
720.5,2258
720.6,2245
720.7,2234
720.8,2224
720.9,2215
721.0,2208
721.1,2203
721.2,2199
721.3,2197
721.4,2197
721.5,2199
721.6,2200
721.7,2201
721.8,2203
721.9,2206
722.0,2209
722.1,2214
722.2,2219
722.3,2225
722.4,2231
722.5,2237
722.6,2245
722.7,2253
722.8,2262
722.9,2271
723.0,2280
723.1,2288
723.2,2297
723.3,2305
723.4,2313
723.5,2322
723.6,2331
723.7,2339
723.8,2350
723.9,2362
724.0,2373
724.1,2384
724.2,2397
724.3,2408
724.4,2421
724.5,2433
724.6,2446
724.7,2460
724.8,2472
724.9,2485
725.0,2496
725.1,2505
725.2,2513
725.3,2519
725.4,2524
725.5,2526
725.6,2525
725.7,2521
725.8,2515
725.9,2507
726.0,2496
726.1,2485
726.2,2473
726.3,2460
726.4,2447
726.5,2433
726.6,2421
726.7,2409
726.8,2397
726.9,2387
727.0,2376
727.1,2365
727.2,2355
727.3,2344
727.4,2331
727.5,2319
727.6,2305
727.7,2291
727.8,2279
727.9,2267
728.0,2254
728.1,2241
728.2,2229
728.3,2217
728.4,2208
728.5,2201
728.6,2197
728.7,2196
728.8,2195
728.9,2196
729.0,2199
729.1,2205
729.2,2212
729.3,2221
729.4,2234
729.5,2249
729.6,2264
729.7,2283
729.8,2301
729.9,2323
730.0,2347
730.1,2373
730.2,2401
730.3,2429
730.4,2459
730.5,2491
730.6,2521
730.7,2554
730.8,2586
730.9,2621
731.0,2656
731.1,2689
731.2,2722
731.3,2752
731.4,2783
731.5,2812
731.6,2838
731.7,2862
731.8,2884
731.9,2904
732.0,2922
732.1,2937
732.2,2953
732.3,2968
732.4,2982
732.5,2995
732.6,3008
732.7,3020
732.8,3028
732.9,3033
733.0,3037
733.1,3037
733.2,3034
733.3,3028
733.4,3019
733.5,3009
733.6,2994
733.7,2979
733.8,2960
733.9,2940
734.0,2916
734.1,2891
734.2,2863
734.3,2829
734.4,2792
734.5,2756
734.6,2714
734.7,2672
734.8,2626
734.9,2580
735.0,2534
735.1,2483
735.2,2435
735.3,2383
735.4,2328
735.5,2277
735.6,2221
735.7,2168
735.8,2114
735.9,2059
736.0,2007
736.1,1954
736.2,1907
736.3,1859
736.4,1813
736.5,1772
736.6,1734
736.7,1695
736.8,1659
736.9,1621
737.0,1587
737.1,1551
737.2,1516
737.3,1481
737.4,1447
737.5,1415
737.6,1387
737.7,1360
737.8,1338
737.9,1318
738.0,1301
738.1,1287
738.2,1276
738.3,1266
738.4,1258
738.5,1251
738.6,1247
738.7,1243
738.8,1241
738.9,1241
739.0,1243
739.1,1244
739.2,1247
739.3,1250
739.4,1253
739.5,1254
739.6,1256
739.7,1258
739.8,1259
739.9,1258
740.0,1257
740.1,1257
740.2,1257
740.3,1259
740.4,1263
740.5,1267
740.6,1272
740.7,1276
740.8,1280
740.9,1284
741.0,1287
741.1,1290
741.2,1293
741.3,1296
741.4,1300
741.5,1303
741.6,1308
741.7,1314
741.8,1322
741.9,1332
742.0,1344
742.1,1358
742.2,1373
742.3,1389
742.4,1405
742.5,1422
742.6,1438
742.7,1456
742.8,1474
742.9,1494
743.0,1513
743.1,1532
743.2,1550
743.3,1571
743.4,1593
743.5,1615
743.6,1639
743.7,1664
743.8,1690
743.9,1716
744.0,1743
744.1,1773
744.2,1806
744.3,1837
744.4,1870
744.5,1904
744.6,1939
744.7,1975
744.8,2012
744.9,2046
745.0,2082
745.1,2115
745.2,2148
745.3,2179
745.4,2210
745.5,2239
745.6,2267
745.7,2291
745.8,2315
745.9,2337
746.0,2360
746.1,2383
746.2,2405
746.3,2427
746.4,2448
746.5,2468
746.6,2490
746.7,2508
746.8,2525
746.9,2542
747.0,2556
747.1,2566
747.2,2575
747.3,2580
747.4,2583
747.5,2583
747.6,2581
747.7,2577
747.8,2572
747.9,2565
748.0,2555
748.1,2542
748.2,2526
748.3,2508
748.4,2492
748.5,2473
748.6,2455
748.7,2437
748.8,2416
748.9,2397
749.0,2376
749.1,2358
749.2,2341
749.3,2323
749.4,2306
749.5,2290
749.6,2270
749.7,2250
749.8,2231
749.9,2210
750.0,2189
750.1,2169
750.2,2150
750.3,2130
750.4,2109
750.5,2090
750.6,2072
750.7,2054
750.8,2037
750.9,2022
751.0,2006
751.1,1988
751.2,1970
751.3,1954
751.4,1936
751.5,1920
751.6,1907
751.7,1893
751.8,1880
751.9,1869
752.0,1860
752.1,1852
752.2,1845
752.3,1840
752.4,1836
752.5,1833
752.6,1831
752.7,1831
752.8,1833
752.9,1836
753.0,1841
753.1,1846
753.2,1854
753.3,1863
753.4,1873
753.5,1885
753.6,1899
753.7,1914
753.8,1927
753.9,1941
754.0,1956
754.1,1971
754.2,1987
754.3,2004
754.4,2021
754.5,2038
754.6,2053
754.7,2067
754.8,2081
754.9,2093
755.0,2103
755.1,2112
755.2,2118
755.3,2123
755.4,2126
755.5,2126
755.6,2123
755.7,2118
755.8,2111
755.9,2104
756.0,2095
756.1,2085
756.2,2074
756.3,2061
756.4,2046
756.5,2031
756.6,2015
756.7,1997
756.8,1975
756.9,1953
757.0,1928
757.1,1898
757.2,1866
757.3,1834
757.4,1801
757.5,1761
757.6,1718
757.7,1677
757.8,1632
757.9,1587
758.0,1543
758.1,1499
758.2,1451
758.3,1402
758.4,1358
758.5,1311
758.6,1264
758.7,1221
758.8,1179
758.9,1136
759.0,1096
759.1,1059
759.2,1020
759.3,984
759.4,952
759.5,920
759.6,890
759.7,862
759.8,837
759.9,813
760.0,790
760.1,770
760.2,754
760.3,739
760.4,726
760.5,715
760.6,704
760.7,694
760.8,685
760.9,679
761.0,674
761.1,669
761.2,665
761.3,663
761.4,662
761.5,663
761.6,666
761.7,673
761.8,683
761.9,694
762.0,707
762.1,724
762.2,742
762.3,761
762.4,780
762.5,801
762.6,822
762.7,841
762.8,860
762.9,878
763.0,895
763.1,911
763.2,926
763.3,939
763.4,952
763.5,962
763.6,972
763.7,982
763.8,992
763.9,1004
764.0,1016
764.1,1028
764.2,1042
764.3,1055
764.4,1069
764.5,1085
764.6,1101
764.7,1117
764.8,1133
764.9,1150
765.0,1165
765.1,1181
765.2,1197
765.3,1211
765.4,1225
765.5,1239
765.6,1252
765.7,1264
765.8,1275
765.9,1284
766.0,1293
766.1,1301
766.2,1307
766.3,1312
766.4,1317
766.5,1323
766.6,1327
766.7,1330
766.8,1333
766.9,1335
767.0,1338
767.1,1339
767.2,1340
767.3,1341
767.4,1340
767.5,1339
767.6,1339
767.7,1339
767.8,1340
767.9,1340
768.0,1340
768.1,1341
768.2,1341
768.3,1340
768.4,1338
768.5,1334
768.6,1327
768.7,1318
768.8,1308
768.9,1296
769.0,1283
769.1,1268
769.2,1251
769.3,1233
769.4,1216
769.5,1198
769.6,1178
769.7,1160
769.8,1140
769.9,1118
770.0,1096
770.1,1076
770.2,1055
770.3,1034
770.4,1011
770.5,988
770.6,966
770.7,944
770.8,920
770.9,895
771.0,871
771.1,843
771.2,814
771.3,786
771.4,758
771.5,729
771.6,700
771.7,673
771.8,644
771.9,620
772.0,594
772.1,570
772.2,548
772.3,527
772.4,504
772.5,482
772.6,460
772.7,440
772.8,418
772.9,396
773.0,375
773.1,357
773.2,339
773.3,323
773.4,308
773.5,295
773.6,284
773.7,276
773.8,270
773.9,266
774.0,263
774.1,261
774.2,261
774.3,262
774.4,266
774.5,271
774.6,278
774.7,285
774.8,293
774.9,303
775.0,314
775.1,326
775.2,338
775.3,352
775.4,366
775.5,382
775.6,398
775.7,415
775.8,433
775.9,454
776.0,476
776.1,499
776.2,523
776.3,546
776.4,572
776.5,599
776.6,626
776.7,651
776.8,677
776.9,705
777.0,732
777.1,760
777.2,787
777.3,813
777.4,841
777.5,870
777.6,899
777.7,926
777.8,952
777.9,978
778.0,1004
778.1,1028
778.2,1053
778.3,1076
778.4,1099
778.5,1121
778.6,1144
778.7,1166
778.8,1188
778.9,1211
779.0,1233
779.1,1254
779.2,1274
779.3,1291
779.4,1308
779.5,1326
779.6,1344
779.7,1361
779.8,1377
779.9,1392
780.0,1407
780.1,1422
780.2,1435
780.3,1444
780.4,1453
780.5,1459
780.6,1463
780.7,1465
780.8,1465
780.9,1466
781.0,1468
781.1,1470
781.2,1473
781.3,1478
781.4,1485
781.5,1494
781.6,1502
781.7,1510
781.8,1519
781.9,1525
782.0,1530
782.1,1534
782.2,1538
782.3,1542
782.4,1547
782.5,1551
782.6,1555
782.7,1559
782.8,1561
782.9,1563
783.0,1564
783.1,1563
783.2,1561
783.3,1558
783.4,1552
783.5,1543
783.6,1532
783.7,1522
783.8,1512
783.9,1503
784.0,1493
784.1,1482
784.2,1469
784.3,1454
784.4,1438
784.5,1422
784.6,1404
784.7,1385
784.8,1366
784.9,1347
785.0,1328
785.1,1309
785.2,1292
785.3,1275
785.4,1258
785.5,1238
785.6,1216
785.7,1191
785.8,1164
785.9,1137
786.0,1107
786.1,1074
786.2,1039
786.3,1003
786.4,970
786.5,936
786.6,902
786.7,869
786.8,836
786.9,805
787.0,774
787.1,740
787.2,706
787.3,672
787.4,638
787.5,606
787.6,573
787.7,540
787.8,507
787.9,476
788.0,447
788.1,416
788.2,386
788.3,355
788.4,325
788.5,296
788.6,265
788.7,234
788.8,206
788.9,180
789.0,157
789.1,134
789.2,112
789.3,94
789.4,79
789.5,67
789.6,56
789.7,47
789.8,38
789.9,31
790.0,24
790.1,19
790.2,15
790.3,13
790.4,11
790.5,10
790.6,11
790.7,13
790.8,18
790.9,26
791.0,34
791.1,45
791.2,58
791.3,73
791.4,91
791.5,110
791.6,130
791.7,151
791.8,173
791.9,193
792.0,212
792.1,233
792.2,253
792.3,271
792.4,290
792.5,306
792.6,322
792.7,338
792.8,353
792.9,366
793.0,379
793.1,390
793.2,400
793.3,409
793.4,417
793.5,423
793.6,428
793.7,435
793.8,442
793.9,449
794.0,457
794.1,464
794.2,471
794.3,478
794.4,485
794.5,491
794.6,496
794.7,499
794.8,501
794.9,502
795.0,502
795.1,501
795.2,500
795.3,498
795.4,494
795.5,489
795.6,483
795.7,475
795.8,465
795.9,454
796.0,440
796.1,426
796.2,413
796.3,401
796.4,390
796.5,381
796.6,374
796.7,368
796.8,363
796.9,361
797.0,359
797.1,358
797.2,357
797.3,355
797.4,355
797.5,354
797.6,355
797.7,357
797.8,362
797.9,367
798.0,375
798.1,384
798.2,391
798.3,398
798.4,404
798.5,408
798.6,411
798.7,412
798.8,411
798.9,410
799.0,407
799.1,404
799.2,402
799.3,401
799.4,401
799.5,401
799.6,402
799.7,402
799.8,402
799.9,402
800.0,402