nm,INT
500.0,51
500.1,49
500.2,47
500.3,44
500.4,42
500.5,40
500.6,37
500.7,35
500.8,32
500.9,30
501.0,28
501.1,26
501.2,24
501.3,21
501.4,20
501.5,18
501.6,16
501.7,14
501.8,13
501.9,11
502.0,10
502.1,9
502.2,7
502.3,6
502.4,5
502.5,5
502.6,4
502.7,3
502.8,3
502.9,2
503.0,2
503.1,2
503.2,1
503.3,1
503.4,1
503.5,1
503.6,1
503.7,1
503.8,1
503.9,1
504.0,1
504.1,2
504.2,2
504.3,3
504.4,3
504.5,3
504.6,4
504.7,4
504.8,4
504.9,4
505.0,5
505.1,5
505.2,5
505.3,5
505.4,5
505.5,5
505.6,5
505.7,5
505.8,6
505.9,6
506.0,6
506.1,7
506.2,7
506.3,8
506.4,9
506.5,10
506.6,11
506.7,13
506.8,14
506.9,16
507.0,18
507.1,19
507.2,21
507.3,23
507.4,24
507.5,26
507.6,27
507.7,29
507.8,31
507.9,32
508.0,34
508.1,36
508.2,38
508.3,40
508.4,42
508.5,44
508.6,46
508.7,48
508.8,50
508.9,52
509.0,54
509.1,56
509.2,58
509.3,59
509.4,61
509.5,63
509.6,65
509.7,66
509.8,68
509.9,70
510.0,72
510.1,74
510.2,76
510.3,79
510.4,81
510.5,83
510.6,86
510.7,88
510.8,91
510.9,93
511.0,96
511.1,98
511.2,101
511.3,103
511.4,105
511.5,107
511.6,109
511.7,111
511.8,112
511.9,114
512.0,116
512.1,117
512.2,119
512.3,120
512.4,122
512.5,123
512.6,125
512.7,126
512.8,127
512.9,129
513.0,130
513.1,131
513.2,132
513.3,133
513.4,133
513.5,134
513.6,134
513.7,134
513.8,134
513.9,134
514.0,134
514.1,133
514.2,132
514.3,131
514.4,130
514.5,129
514.6,128
514.7,126
514.8,125
514.9,123
515.0,122
515.1,120
515.2,118
515.3,116
515.4,113
515.5,111
515.6,109
515.7,106
515.8,104
515.9,102
516.0,99
516.1,97
516.2,95
516.3,93
516.4,91
516.5,88
516.6,86
516.7,85
516.8,83
516.9,81
517.0,80
517.1,78
517.2,77
517.3,76
517.4,75
517.5,74
517.6,74
517.7,73
517.8,73
517.9,73
518.0,74
518.1,74
518.2,75
518.3,76
518.4,78
518.5,80
518.6,82
518.7,85
518.8,88
518.9,91
519.0,95
519.1,99
519.2,104
519.3,109
519.4,114
519.5,120
519.6,126
519.7,132
519.8,138
519.9,144
520.0,150
520.1,156
520.2,162
520.3,168
520.4,175
520.5,180
520.6,186
520.7,192
520.8,197
520.9,203
521.0,208
521.1,213
521.2,218
521.3,223
521.4,228
521.5,233
521.6,237
521.7,242
521.8,247
521.9,252
522.0,256
522.1,261
522.2,266
522.3,270
522.4,275
522.5,279
522.6,283
522.7,287
522.8,291
522.9,295
523.0,298
523.1,301
523.2,304
523.3,307
523.4,310
523.5,313
523.6,316
523.7,319
523.8,323
523.9,327
524.0,331
524.1,335
524.2,339
524.3,343
524.4,348
524.5,353
524.6,358
524.7,363
524.8,368
524.9,374
525.0,380
525.1,386
525.2,393
525.3,400
525.4,408
525.5,416
525.6,424
525.7,433
525.8,442
525.9,451
526.0,461
526.1,471
526.2,481
526.3,492
526.4,503
526.5,514
526.6,526
526.7,536
526.8,548
526.9,559
527.0,571
527.1,583
527.2,594
527.3,607
527.4,619
527.5,631
527.6,644
527.7,657
527.8,670
527.9,685
528.0,699
528.1,714
528.2,730
528.3,744
528.4,759
528.5,775
528.6,791
528.7,807
528.8,822
528.9,837
529.0,852
529.1,866
529.2,881
529.3,895
529.4,909
529.5,923
529.6,938
529.7,952
529.8,966
529.9,980
530.0,994
530.1,1009
530.2,1024
530.3,1038
530.4,1054
530.5,1069
530.6,1084
530.7,1099
530.8,1115
530.9,1130
531.0,1146
531.1,1162
531.2,1178
531.3,1195
531.4,1210
531.5,1226
531.6,1243
531.7,1260
531.8,1276
531.9,1294
532.0,1311
532.1,1330
532.2,1348
532.3,1366
532.4,1385
532.5,1404
532.6,1424
532.7,1444
532.8,1463
532.9,1481
533.0,1500
533.1,1520
533.2,1539
533.3,1559
533.4,1578
533.5,1598
533.6,1617
533.7,1637
533.8,1656
533.9,1677
534.0,1697
534.1,1717
534.2,1737
534.3,1758
534.4,1778
534.5,1797
534.6,1818
534.7,1839
534.8,1860
534.9,1882
535.0,1903
535.1,1925
535.2,1946
535.3,1967
535.4,1988
535.5,2010
535.6,2031
535.7,2052
535.8,2073
535.9,2093
536.0,2112
536.1,2132
536.2,2153
536.3,2173
536.4,2193
536.5,2213
536.6,2233
536.7,2253
536.8,2273
536.9,2293
537.0,2312
537.1,2332
537.2,2352
537.3,2373
537.4,2394
537.5,2415
537.6,2434
537.7,2456
537.8,2478
537.9,2501
538.0,2523
538.1,2545
538.2,2567
538.3,2589
538.4,2612
538.5,2634
538.6,2656
538.7,2678
538.8,2700
538.9,2722
539.0,2745
539.1,2767
539.2,2788
539.3,2811
539.4,2834
539.5,2857
539.6,2881
539.7,2905
539.8,2928
539.9,2951
540.0,2975
540.1,2999
540.2,3023
540.3,3046
540.4,3069
540.5,3092
540.6,3115
540.7,3137
540.8,3159
540.9,3181
541.0,3202
541.1,3223
541.2,3244
541.3,3266
541.4,3287
541.5,3308
541.6,3329
541.7,3350
541.8,3372
541.9,3394
542.0,3417
542.1,3439
542.2,3460
542.3,3482
542.4,3505
542.5,3528
542.6,3550
542.7,3571
542.8,3593
542.9,3615
543.0,3636
543.1,3659
543.2,3683
543.3,3707
543.4,3731
543.5,3756
543.6,3783
543.7,3810
543.8,3836
543.9,3865
544.0,3894
544.1,3925
544.2,3956
544.3,3989
544.4,4021
544.5,4054
544.6,4088
544.7,4122
544.8,4158
544.9,4195
545.0,4231
545.1,4269
545.2,4307
545.3,4343
545.4,4383
545.5,4424
545.6,4466
545.7,4509
545.8,4553
545.9,4600
546.0,4647
546.1,4695
546.2,4744
546.3,4794
546.4,4846
546.5,4898
546.6,4951
546.7,5005
546.8,5059
546.9,5112
547.0,5166
547.1,5221
547.2,5275
547.3,5330
547.4,5384
547.5,5439
547.6,5494
547.7,5550
547.8,5607
547.9,5666
548.0,5724
548.1,5784
548.2,5843
548.3,5907
548.4,5971
548.5,6034
548.6,6095
548.7,6157
548.8,6219
548.9,6281
549.0,6345
549.1,6408
549.2,6470
549.3,6532
549.4,6594
549.5,6655
549.6,6718
549.7,6781
549.8,6843
549.9,6905
550.0,6968
550.1,7031
550.2,7096
550.3,7162
550.4,7228
550.5,7295
550.6,7362
550.7,7431
550.8,7503
550.9,7575
551.0,7647
551.1,7719
551.2,7793
551.3,7867
551.4,7945
551.5,8023
551.6,8100
551.7,8178
551.8,8258
551.9,8339
552.0,8423
552.1,8509
552.2,8594
552.3,8679
552.4,8767
552.5,8855
552.6,8946
552.7,9042
552.8,9139
552.9,9231
553.0,9324
553.1,9418
553.2,9513
553.3,9610
553.4,9709
553.5,9806
553.6,9903
553.7,10001
553.8,10100
553.9,10201
554.0,10304
554.1,10404
554.2,10506
554.3,10608
554.4,10714
554.5,10820
554.6,10925
554.7,11031
554.8,11136
554.9,11242
555.0,11348
555.1,11456
555.2,11566
555.3,11671
555.4,11777
555.5,11882
555.6,11991
555.7,12098
555.8,12203
555.9,12308
556.0,12413
556.1,12518
556.2,12623
556.3,12731
556.4,12841
556.5,12946
556.6,13053
556.7,13159
556.8,13265
556.9,13374
557.0,13485
557.1,13592
557.2,13708
557.3,13815
557.4,13921
557.5,14031
557.6,14141
557.7,14246
557.8,14352
557.9,14458
558.0,14564
558.1,14675
558.2,14787
558.3,14895
558.4,15004
558.5,15114
558.6,15226
558.7,15343
558.8,15462
558.9,15578
559.0,15695
559.1,15814
559.2,15934
559.3,16060
559.4,16188
559.5,16312
559.6,16438
559.7,16566
559.8,16696
559.9,16831
560.0,16969
560.1,17103
560.2,17239
560.3,17376
560.4,17516
560.5,17662
560.6,17809
560.7,17954
560.8,18099
560.9,18247
561.0,18395
561.1,18550
561.2,18706
561.3,18858
561.4,19011
561.5,19166
561.6,19333
561.7,19496
561.8,19660
561.9,19827
562.0,19990
562.1,20155
562.2,20322
562.3,20491
562.4,20666
562.5,20845
562.6,21018
562.7,21193
562.8,21369
562.9,21553
563.0,21737
563.1,21916
563.2,22095
563.3,22275
563.4,22456
563.5,22638
563.6,22827
563.7,23018
563.8,23203
563.9,23389
564.0,23575
564.1,23770
564.2,23964
564.3,24152
564.4,24342
564.5,24533
564.6,24725
564.7,24919
564.8,25119
564.9,25322
565.0,25518
565.1,25715
565.2,25912
565.3,26110
565.4,26315
565.5,26522
565.6,26722
565.7,26921
565.8,27121
565.9,27334
566.0,27550
566.1,27759
566.2,27961
566.3,28164
566.4,28367
566.5,28571
566.6,28783
566.7,28995
566.8,29200
566.9,29406
567.0,29612
567.1,29818
567.2,30031
567.3,30246
567.4,30453
567.5,30661
567.6,30870
567.7,31080
567.8,31299
567.9,31518
568.0,31731
568.1,31946
568.2,32163
568.3,32381
568.4,32608
568.5,32838
568.6,33060
568.7,33284
568.8,33509
568.9,33735
569.0,33970
569.1,34205
569.2,34433
569.3,34662
569.4,34891
569.5,35120
569.6,35357
569.7,35595
569.8,35826
569.9,36057
570.0,36289
570.1,36522
570.2,36763
570.3,37014
570.4,37264
570.5,37499
570.6,37737
570.7,37975
570.8,38215
570.9,38464
571.0,38716
571.1,38959
571.2,39204
571.3,39449
571.4,39706
571.5,39960
571.6,40207
571.7,40454
571.8,40700
571.9,40946
572.0,41193
572.1,41447
572.2,41704
572.3,41952
572.4,42199
572.5,42447
572.6,42704
572.7,42959
572.8,43205
572.9,43451
573.0,43696
573.1,43940
573.2,44182
573.3,44430
573.4,44679
573.5,44915
573.6,45149
573.7,45382
573.8,45613
573.9,45852
574.0,46094
574.1,46324
574.2,46552
574.3,46781
574.4,47021
574.5,47258
574.6,47487
574.7,47718
574.8,47969
574.9,48199
575.0,48429
575.1,48671
575.2,48913
575.3,49146
575.4,49379
575.5,49613
575.6,49846
575.7,50090
575.8,50335
575.9,50568
576.0,50800
576.1,51034
576.2,51268
576.3,51514
576.4,51760
576.5,51997
576.6,52235
576.7,52477
576.8,52721
576.9,52980
577.0,53242
577.1,53490
577.2,53725
577.3,53979
577.4,54236
577.5,54495
577.6,54756
577.7,55018
577.8,55261
577.9,55534
578.0,55800
578.1,56048
578.2,56314
578.3,56560
578.4,56839
578.5,57120
578.6,57383
578.7,57633
578.8,57904
578.9,58178
579.0,58451
579.1,58724
579.2,59001
579.3,59301
579.4,59576
579.5,59850
579.6,60141
579.7,60441
579.8,60733
579.9,61007
580.0,61280
580.1,61553
580.2,61843
580.3,62141
580.4,62429
580.5,62699
580.6,62969
580.7,63263
580.8,63536
580.9,63828
581.0,64115
581.1,64393
581.2,64683
581.3,64953
581.4,65223
581.5,65512
581.6,65810
581.7,66094
581.8,66359
581.9,66627
582.0,66914
582.1,67176
582.2,67439
582.3,67723
582.4,68018
582.5,68300
582.6,68566
582.7,68835
582.8,69105
582.9,69394
583.0,69700
583.1,69999
583.2,70281
583.3,70583
583.4,70864
583.5,71145
583.6,71455
583.7,71771
583.8,72071
583.9,72355
584.0,72640
584.1,72924
584.2,73229
584.3,73520
584.4,73824
584.5,74136
584.6,74421
584.7,74729
584.8,75011
584.9,75293
585.0,75601
585.1,75920
585.2,76221
585.3,76504
585.4,76788
585.5,77096
585.6,77384
585.7,77695
585.8,78004
585.9,78291
586.0,78594
586.1,78873
586.2,79150
586.3,79428
586.4,79743
586.5,80066
586.6,80342
586.7,80617
586.8,80893
586.9,81188
587.0,81471
587.1,81770
587.2,82085
587.3,82377
587.4,82649
587.5,82920
587.6,83191
587.7,83476
587.8,83785
587.9,84091
588.0,84362
588.1,84632
588.2,84925
588.3,85201
588.4,85505
588.5,85810
588.6,86090
588.7,86387
588.8,86663
588.9,86941
589.0,87221
589.1,87546
589.2,87883
589.3,88172
589.4,88462
589.5,88782
589.6,89080
589.7,89377
589.8,89705
589.9,90053
590.0,90378
590.1,90682
590.2,90986
590.3,91290
590.4,91649
590.5,92000
590.6,92307
590.7,92614
590.8,92921
590.9,93254
591.0,93566
591.1,93909
591.2,94263
591.3,94591
591.4,94900
591.5,95208
591.6,95517
591.7,95845
591.8,96199
591.9,96542
592.0,96849
592.1,97154
592.2,97484
592.3,97788
592.4,98128
592.5,98454
592.6,98754
592.7,99064
592.8,99350
592.9,99633
593.0,99933
593.1,100260
593.2,100564
593.3,100833
593.4,101101
593.5,101387
593.6,101645
593.7,101899
593.8,102187
593.9,102479
594.0,102736
594.1,102973
594.2,103208
594.3,103439
594.4,103682
594.5,103953
594.6,104214
594.7,104433
594.8,104651
594.9,104884
595.0,105098
595.1,105355
595.2,105605
595.3,105824
595.4,106030
595.5,106236
595.6,106442
595.7,106663
595.8,106873
595.9,107111
596.0,107362
596.1,107566
596.2,107783
596.3,107979
596.4,108171
596.5,108401
596.6,108635
596.7,108831
596.8,109011
596.9,109190
597.0,109381
597.1,109560
597.2,109777
597.3,109995
597.4,110176
597.5,110369
597.6,110548
597.7,110727
597.8,110908
597.9,111136
598.0,111375
598.1,111559
598.2,111744
598.3,111930
598.4,112133
598.5,112329
598.6,112559
598.7,112804
598.8,113002
598.9,113217
599.0,113414
599.1,113611
599.2,113820
599.3,114064
599.4,114313
599.5,114510
599.6,114706
599.7,114918
599.8,115117
599.9,115357
600.0,115598
600.1,115798
600.2,116010
600.3,116205
600.4,116399
600.5,116593
600.6,116836
600.7,117088
600.8,117281
600.9,117475
601.0,117688
601.1,117887
601.2,118086
601.3,118324
601.4,118584
601.5,118801
601.6,119004
601.7,119207
601.8,119409
601.9,119669
602.0,119917
602.1,120111
602.2,120302
602.3,120491
602.4,120693
602.5,120882
602.6,121111
602.7,121339
602.8,121522
602.9,121716
603.0,121895
603.1,122073
603.2,122261
603.3,122490
603.4,122711
603.5,122884
603.6,123055
603.7,123240
603.8,123411
603.9,123634
604.0,123840
604.1,124008
604.2,124181
604.3,124341
604.4,124497
604.5,124650
604.6,124860
604.7,125056
604.8,125198
604.9,125337
605.0,125482
605.1,125613
605.2,125740
605.3,125915
605.4,126091
605.5,126220
605.6,126340
605.7,126458
605.8,126575
605.9,126698
606.0,126864
606.1,127025
606.2,127137
606.3,127247
606.4,127366
606.5,127475
606.6,127640
606.7,127788
606.8,127899
606.9,128016
607.0,128125
607.1,128236
607.2,128354
607.3,128467
607.4,128617
607.5,128783
607.6,128893
607.7,129012
607.8,129121
607.9,129229
608.0,129386
608.1,129545
608.2,129658
608.3,129764
608.4,129872
608.5,129982
608.6,130100
608.7,130265
608.8,130425
608.9,130538
609.0,130659
609.1,130772
609.2,130885
609.3,130999
609.4,131163
609.5,131337
609.6,131450
609.7,131564
609.8,131680
609.9,131805
610.0,131926
610.1,132086
610.2,132263
610.3,132384
610.4,132514
610.5,132633
610.6,132752
610.7,132922
610.8,133095
610.9,133220
611.0,133337
611.1,133455
611.2,133581
611.3,133699
611.4,133865
611.5,134031
611.6,134149
611.7,134272
611.8,134386
611.9,134498
612.0,134607
612.1,134766
612.2,134935
612.3,135042
612.4,135148
612.5,135252
612.6,135360
612.7,135461
612.8,135599
612.9,135754
613.0,135851
613.1,135937
613.2,136017
613.3,136092
613.4,136220
613.5,136334
613.6,136396
613.7,136456
613.8,136514
613.9,136574
614.0,136629
614.1,136733
614.2,136836
614.3,136889
614.4,136945
614.5,136995
614.6,137043
614.7,137087
614.8,137176
614.9,137270
615.0,137303
615.1,137333
615.2,137360
615.3,137381
615.4,137458
615.5,137515
615.6,137527
615.7,137536
615.8,137541
615.9,137543
616.0,137542
616.1,137594
616.2,137634
616.3,137626
616.4,137615
616.5,137601
616.6,137583
616.7,137563
616.8,137594
616.9,137621
617.0,137594
617.1,137565
617.2,137533
617.3,137498
617.4,137459
617.5,137469
617.6,137478
617.7,137436
617.8,137392
617.9,137343
618.0,137298
618.1,137314
618.2,137314
618.3,137272
618.4,137229
618.5,137188
618.6,137147
618.7,137105
618.8,137060
618.9,137056
619.0,137069
619.1,137021
619.2,136967
619.3,136917
619.4,136868
619.5,136868
619.6,136868
619.7,136819
619.8,136774
619.9,136730
620.0,136688
620.1,136645
620.2,136655
620.3,136669
620.4,136633
620.5,136600
620.6,136566
620.7,136536
620.8,136507
620.9,136523
621.0,136550
621.1,136524
621.2,136498
621.3,136473
621.4,136447
621.5,136422
621.6,136440
621.7,136475
621.8,136453
621.9,136431
622.0,136415
622.1,136400
622.2,136438
622.3,136477
622.4,136470
622.5,136464
622.6,136461
622.7,136459
622.8,136456
622.9,136503
623.0,136548
623.1,136543
623.2,136537
623.3,136532
623.4,136527
623.5,136523
623.6,136562
623.7,136611
623.8,136608
623.9,136607
624.0,136608
624.1,136611
624.2,136614
624.3,136659
624.4,136720
624.5,136724
624.6,136730
624.7,136736
624.8,136741
624.9,136798
625.0,136843
625.1,136842
625.2,136840
625.3,136836
625.4,136829
625.5,136820
625.6,136857
625.7,136892
625.8,136877
625.9,136861
626.0,136847
626.1,136835
626.2,136823
626.3,136855
626.4,136898
626.5,136891
626.6,136885
626.7,136882
626.8,136879
626.9,136932
627.0,136971
627.1,136968
627.2,136966
627.3,136963
627.4,136958
627.5,136949
627.6,136989
627.7,137018
627.8,137001
627.9,136982
628.0,136958
628.1,136929
628.2,136897
628.3,136911
628.4,136925
628.5,136890
628.6,136851
628.7,136814
628.8,136774
628.9,136730
629.0,136734
629.1,136738
629.2,136695
629.3,136651
629.4,136600
629.5,136551
629.6,136557
629.7,136548
629.8,136499
629.9,136448
630.0,136400
630.1,136351
630.2,136300
630.3,136246
630.4,136231
630.5,136232
630.6,136178
630.7,136122
630.8,136059
630.9,135998
631.0,135985
631.1,135969
631.2,135904
631.3,135842
631.4,135780
631.5,135715
631.6,135646
631.7,135624
631.8,135603
631.9,135536
632.0,135468
632.1,135396
632.2,135333
632.3,135274
632.4,135258
632.5,135261
632.6,135212
632.7,135171
632.8,135133
632.9,135096
633.0,135063
633.1,135069
633.2,135089
633.3,135053
633.4,135011
633.5,134971
633.6,134929
633.7,134932
633.8,134931
633.9,134882
634.0,134834
634.1,134783
634.2,134732
634.3,134677
634.4,134668
634.5,134658
634.6,134601
634.7,134543
634.8,134477
634.9,134417
635.0,134357
635.1,134337
635.2,134325
635.3,134268
635.4,134212
635.5,134156
635.6,134096
635.7,134038
635.8,134016
635.9,134007
636.0,133942
636.1,133868
636.2,133798
636.3,133726
636.4,133696
636.5,133662
636.6,133579
636.7,133501
636.8,133422
636.9,133335
637.0,133254
637.1,133217
637.2,133180
637.3,133097
637.4,133008
637.5,132928
637.6,132851
637.7,132775
637.8,132739
637.9,132713
638.0,132649
638.1,132590
638.2,132536
638.3,132483
638.4,132485
638.5,132476
638.6,132433
638.7,132391
638.8,132345
638.9,132304
639.0,132262
639.1,132263
639.2,132254
639.3,132207
639.4,132159
639.5,132111
639.6,132056
639.7,132003
639.8,131992
639.9,131980
640.0,131922
640.1,131860
640.2,131802
640.3,131743
640.4,131732
640.5,131703
640.6,131636
640.7,131572
640.8,131505
640.9,131429
641.0,131356
641.1,131330
641.2,131286
641.3,131201
641.4,131107
641.5,131015
641.6,130917
641.7,130815
641.8,130704
641.9,130624
642.0,130560
642.1,130444
642.2,130325
642.3,130192
642.4,130065
642.5,129979
642.6,129892
642.7,129760
642.8,129616
642.9,129481
643.0,129345
643.1,129199
643.2,129098
643.3,129002
643.4,128864
643.5,128728
643.6,128581
643.7,128448
643.8,128317
643.9,128223
644.0,128143
644.1,128012
644.2,127891
644.3,127773
644.4,127658
644.5,127538
644.6,127456
644.7,127395
644.8,127287
644.9,127172
645.0,127068
645.1,126966
645.2,126906
645.3,126844
645.4,126740
645.5,126645
645.6,126552
645.7,126462
645.8,126367
645.9,126318
646.0,126274
646.1,126192
646.2,126113
646.3,126031
646.4,125958
646.5,125887
646.6,125851
646.7,125827
646.8,125753
646.9,125685
647.0,125615
647.1,125538
647.2,125461
647.3,125418
647.4,125385
647.5,125301
647.6,125206
647.7,125116
647.8,125025
647.9,124971
648.0,124911
648.1,124807
648.2,124707
648.3,124606
648.4,124505
648.5,124396
648.6,124330
648.7,124269
648.8,124167
648.9,124058
649.0,123959
649.1,123862
649.2,123765
649.3,123701
649.4,123644
649.5,123548
649.6,123451
649.7,123351
649.8,123242
649.9,123182
650.0,123110
650.1,123002
650.2,122892
650.3,122771
650.4,122660
650.5,122549
650.6,122478
650.7,122403
650.8,122287
650.9,122178
651.0,122069
651.1,121951
651.2,121841
651.3,121772
651.4,121704
651.5,121593
651.6,121476
651.7,121368
651.8,121260
651.9,121199
652.0,121121
652.1,121009
652.2,120902
652.3,120795
652.4,120687
652.5,120568
652.6,120499
652.7,120418
652.8,120298
652.9,120170
653.0,120048
653.1,119922
653.2,119795
653.3,119659
653.4,119554
653.5,119467
653.6,119330
653.7,119192
653.8,119039
653.9,118894
654.0,118791
654.1,118687
654.2,118542
654.3,118389
654.4,118249
654.5,118115
654.6,118031
654.7,117933
654.8,117806
654.9,117690
655.0,117577
655.1,117459
655.2,117352
655.3,117249
655.4,117180
655.5,117123
655.6,117014
655.7,116912
655.8,116810
655.9,116709
656.0,116602
656.1,116533
656.2,116482
656.3,116385
656.4,116289
656.5,116188
656.6,116097
656.7,116050
656.8,116003
656.9,115916
657.0,115839
657.1,115766
657.2,115697
657.3,115628
657.4,115606
657.5,115589
657.6,115533
657.7,115478
657.8,115418
657.9,115365
658.0,115312
658.1,115292
658.2,115281
658.3,115218
658.4,115158
658.5,115096
658.6,115032
658.7,114963
658.8,114926
658.9,114904
659.0,114828
659.1,114742
659.2,114660
659.3,114576
659.4,114531
659.5,114480
659.6,114380
659.7,114285
659.8,114190
659.9,114094
660.0,113992
660.1,113937
660.2,113886
660.3,113794
660.4,113703
660.5,113607
660.6,113518
660.7,113431
660.8,113379
660.9,113334
661.0,113246
661.1,113159
661.2,113070
661.3,112974
661.4,112930
661.5,112873
661.6,112779
661.7,112683
661.8,112579
661.9,112481
662.0,112383
662.1,112328
662.2,112269
662.3,112167
662.4,112072
662.5,111981
662.6,111893
662.7,111802
662.8,111761
662.9,111726
663.0,111651
663.1,111576
663.2,111509
663.3,111444
663.4,111432
663.5,111404
663.6,111338
663.7,111275
663.8,111212
663.9,111149
664.0,111079
664.1,111062
664.2,111030
664.3,110958
664.4,110883
664.5,110798
664.6,110717
664.7,110635
664.8,110546
664.9,110492
665.0,110455
665.1,110363
665.2,110268
665.3,110164
665.4,110064
665.5,110010
665.6,109954
665.7,109850
665.8,109736
665.9,109628
666.0,109518
666.1,109459
666.2,109377
666.3,109253
666.4,109132
666.5,109008
666.6,108879
666.7,108738
666.8,108599
666.9,108499
667.0,108405
667.1,108249
667.2,108100
667.3,107947
667.4,107792
667.5,107626
667.6,107497
667.7,107389
667.8,107226
667.9,107062
668.0,106885
668.1,106717
668.2,106598
668.3,106480
668.4,106314
668.5,106140
668.6,105981
668.7,105824
668.8,105659
668.9,105545
669.0,105438
669.1,105289
669.2,105142
669.3,104985
669.4,104840
669.5,104697
669.6,104592
669.7,104499
669.8,104348
669.9,104207
670.0,104066
670.1,103924
670.2,103773
670.3,103660
670.4,103568
670.5,103424
670.6,103279
670.7,103123
670.8,102976
670.9,102877
671.0,102773
671.1,102619
671.2,102476
671.3,102335
671.4,102194
671.5,102044
671.6,101945
671.7,101851
671.8,101713
671.9,101575
672.0,101428
672.1,101293
672.2,101159
672.3,101065
672.4,100983
672.5,100842
672.6,100712
672.7,100582
672.8,100442
672.9,100361
673.0,100269
673.1,100138
673.2,100005
673.3,99861
673.4,99727
673.5,99592
673.6,99503
673.7,99409
673.8,99267
673.9,99132
674.0,98997
674.1,98861
674.2,98716
674.3,98621
674.4,98531
674.5,98396
674.6,98261
674.7,98113
674.8,97976
674.9,97896
675.0,97797
675.1,97660
675.2,97531
675.3,97403
675.4,97275
675.5,97138
675.6,97061
675.7,96972
675.8,96846
675.9,96718
676.0,96579
676.1,96450
676.2,96323
676.3,96243
676.4,96160
676.5,96029
676.6,95910
676.7,95792
676.8,95668
676.9,95554
677.0,95490
677.1,95428
677.2,95319
677.3,95205
677.4,95101
677.5,94999
677.6,94952
677.7,94886
677.8,94783
677.9,94687
678.0,94593
678.1,94503
678.2,94410
678.3,94324
678.4,94280
678.5,94253
678.6,94172
678.7,94088
678.8,94014
678.9,93941
679.0,93864
679.1,93828
679.2,93809
679.3,93736
679.4,93664
679.5,93586
679.6,93512
679.7,93484
679.8,93454
679.9,93373
680.0,93285
680.1,93202
680.2,93117
680.3,93030
680.4,92982
680.5,92941
680.6,92854
680.7,92767
680.8,92673
680.9,92587
681.0,92503
681.1,92458
681.2,92426
681.3,92336
681.4,92249
681.5,92158
681.6,92064
681.7,91960
681.8,91891
681.9,91839
682.0,91729
682.1,91614
682.2,91485
682.3,91360
682.4,91281
682.5,91199
682.6,91067
682.7,90925
682.8,90792
682.9,90656
683.0,90510
683.1,90413
683.2,90319
683.3,90178
683.4,90036
683.5,89880
683.6,89733
683.7,89588
683.8,89482
683.9,89387
684.0,89232
684.1,89088
684.2,88944
684.3,88800
684.4,88699
684.5,88592
684.6,88450
684.7,88309
684.8,88157
684.9,88020
685.0,87885
685.1,87799
685.2,87710
685.3,87575
685.4,87449
685.5,87327
685.6,87208
685.7,87082
685.8,87007
685.9,86935
686.0,86817
686.1,86697
686.2,86565
686.3,86442
686.4,86374
686.5,86290
686.6,86164
686.7,86031
686.8,85908
686.9,85787
687.0,85658
687.1,85589
687.2,85510
687.3,85392
687.4,85272
687.5,85142
687.6,85023
687.7,84904
687.8,84830
687.9,84752
688.0,84625
688.1,84506
688.2,84386
688.3,84267
688.4,84141
688.5,84065
688.6,83993
688.7,83873
688.8,83746
688.9,83627
689.0,83507
689.1,83438
689.2,83347
689.3,83218
689.4,83095
689.5,82972
689.6,82851
689.7,82722
689.8,82600
689.9,82518
690.0,82453
690.1,82334
690.2,82206
690.3,82089
690.4,81970
690.5,81897
690.6,81820
690.7,81697
690.8,81582
690.9,81470
691.0,81352
691.1,81243
691.2,81184
691.3,81128
691.4,81028
691.5,80924
691.6,80827
691.7,80730
691.8,80632
691.9,80568
692.0,80509
692.1,80405
692.2,80300
692.3,80191
692.4,80072
692.5,79957
692.6,79880
692.7,79813
692.8,79686
692.9,79567
693.0,79447
693.1,79325
693.2,79196
693.3,79104
693.4,79031
693.5,78905
693.6,78778
693.7,78641
693.8,78513
693.9,78430
694.0,78348
694.1,78218
694.2,78079
694.3,77949
694.4,77816
694.5,77683
694.6,77583
694.7,77486
694.8,77348
694.9,77206
695.0,77049
695.1,76902
695.2,76756
695.3,76644
695.4,76543
695.5,76386
695.6,76241
695.7,76097
695.8,75956
695.9,75856
696.0,75752
696.1,75618
696.2,75488
696.3,75361
696.4,75228
696.5,75106
696.6,75029
696.7,74948
696.8,74835
696.9,74720
697.0,74615
697.1,74505
697.2,74406
697.3,74304
697.4,74246
697.5,74187
697.6,74094
697.7,74000
697.8,73914
697.9,73822
698.0,73738
698.1,73651
698.2,73564
698.3,73516
698.4,73486
698.5,73407
698.6,73335
698.7,73257
698.8,73186
698.9,73113
699.0,73037
699.1,72999
699.2,72974
699.3,72897
699.4,72824
699.5,72743
699.6,72668
699.7,72587
699.8,72549
699.9,72509
700.0,72423
700.1,72338
700.2,72258
700.3,72170
700.4,72088
700.5,71999
700.6,71952
700.7,71903
700.8,71807
700.9,71711
701.0,71620
701.1,71519
701.2,71424
701.3,71322
701.4,71261
701.5,71199
701.6,71092
701.7,70986
701.8,70888
701.9,70781
702.0,70682
702.1,70578
702.2,70518
702.3,70459
702.4,70356
702.5,70256
702.6,70163
702.7,70061
702.8,69967
702.9,69866
703.0,69805
703.1,69743
703.2,69635
703.3,69527
703.4,69426
703.5,69315
703.6,69212
703.7,69106
703.8,69043
703.9,68983
704.0,68883
704.1,68787
704.2,68702
704.3,68613
704.4,68534
704.5,68452
704.6,68412
704.7,68371
704.8,68288
704.9,68204
705.0,68124
705.1,68032
705.2,67944
705.3,67849
705.4,67792
705.5,67733
705.6,67633
705.7,67538
705.8,67435
705.9,67332
706.0,67239
706.1,67143
706.2,67090
706.3,67040
706.4,66953
706.5,66873
706.6,66786
706.7,66702
706.8,66624
706.9,66541
707.0,66496
707.1,66449
707.2,66359
707.3,66272
707.4,66174
707.5,66074
707.6,65979
707.7,65878
707.8,65814
707.9,65751
708.0,65650
708.1,65556
708.2,65458
708.3,65363
708.4,65277
708.5,65188
708.6,65139
708.7,65092
708.8,65010
708.9,64932
709.0,64849
709.1,64765
709.2,64688
709.3,64610
709.4,64570
709.5,64531
709.6,64454
709.7,64381
709.8,64303
709.9,64228
710.0,64159
710.1,64088
710.2,64055
710.3,64020
710.4,63949
710.5,63881
710.6,63810
710.7,63740
710.8,63674
710.9,63602
711.0,63565
711.1,63526
711.2,63449
711.3,63375
711.4,63292
711.5,63207
711.6,63124
711.7,63036
711.8,62984
711.9,62932
712.0,62844
712.1,62760
712.2,62669
712.3,62585
712.4,62494
712.5,62401
712.6,62346
712.7,62288
712.8,62192
712.9,62099
713.0,61998
713.1,61906
713.2,61806
713.3,61704
713.4,61640
713.5,61577
713.6,61477
713.7,61384
713.8,61286
713.9,61197
714.0,61100
714.1,61000
714.2,60939
714.3,60880
714.4,60789
714.5,60705
714.6,60617
714.7,60537
714.8,60451
714.9,60364
715.0,60315
715.1,60268
715.2,60188
715.3,60111
715.4,60026
715.5,59947
715.6,59862
715.7,59778
715.8,59731
715.9,59686
716.0,59609
716.1,59537
716.2,59463
716.3,59398
716.4,59331
716.5,59265
716.6,59235
716.7,59206
716.8,59146
716.9,59090
717.0,59032
717.1,58980
717.2,58924
717.3,58866
717.4,58844
717.5,58821
717.6,58764
717.7,58709
717.8,58647
717.9,58585
718.0,58515
718.1,58481
718.2,58433
718.3,58355
718.4,58276
718.5,58200
718.6,58116
718.7,58039
718.8,57958
718.9,57918
719.0,57867
719.1,57788
719.2,57711
719.3,57637
719.4,57558
719.5,57485
719.6,57407
719.7,57331
719.8,57280
719.9,57229
720.0,57145
720.1,57064
720.2,56976
720.3,56891
720.4,56798
720.5,56705
720.6,56636
720.7,56567
720.8,56466
720.9,56369
721.0,56263
721.1,56165
721.2,56059
721.3,55958
721.4,55884
721.5,55811
721.6,55712
721.7,55618
721.8,55518
721.9,55430
722.0,55338
722.1,55285
722.2,55224
722.3,55135
722.4,55049
722.5,54966
722.6,54878
722.7,54797
722.8,54710
722.9,54658
723.0,54594
723.1,54499
723.2,54406
723.3,54317
723.4,54221
723.5,54132
723.6,54034
723.7,53937
723.8,53863
723.9,53788
724.0,53683
724.1,53582
724.2,53471
724.3,53367
724.4,53256
724.5,53150
724.6,53067
724.7,52990
724.8,52888
724.9,52780
725.0,52673
725.1,52576
725.2,52472
725.3,52373
725.4,52296
725.5,52222
725.6,52121
725.7,52014
725.8,51907
725.9,51809
726.0,51704
726.1,51635
726.2,51554
726.3,51451
726.4,51351
726.5,51245
726.6,51137
726.7,51038
726.8,50931
726.9,50859
727.0,50777
727.1,50675
727.2,50579
727.3,50480
727.4,50384
727.5,50302
727.6,50218
727.7,50143
727.8,50094
727.9,50054
728.0,49992
728.1,49928
728.2,49872
728.3,49814
728.4,49759
728.5,49708
728.6,49682
728.7,49661
728.8,49615
728.9,49569
729.0,49528
729.1,49485
729.2,49443
729.3,49401
729.4,49382
729.5,49369
729.6,49330
729.7,49290
729.8,49254
729.9,49216
730.0,49181
730.1,49174
730.2,49164
730.3,49133
730.4,49101
730.5,49069
730.6,49040
730.7,49007
730.8,48975
730.9,48969
731.0,48957
731.1,48922
731.2,48883
731.3,48845
731.4,48801
731.5,48754
731.6,48708
731.7,48658
731.8,48627
731.9,48603
732.0,48545
732.1,48489
732.2,48425
732.3,48363
732.4,48293
732.5,48219
732.6,48167
732.7,48121
732.8,48041
732.9,47964
733.0,47876
733.1,47791
733.2,47700
733.3,47605
733.4,47534
733.5,47473
733.6,47378
733.7,47289
733.8,47192
733.9,47104
734.0,47012
734.1,46947
734.2,46881
734.3,46786
734.4,46691
734.5,46601
734.6,46504
734.7,46414
734.8,46319
734.9,46250
735.0,46181
735.1,46084
735.2,45993
735.3,45894
735.4,45799
735.5,45711
735.6,45619
735.7,45552
735.8,45485
735.9,45395
736.0,45311
736.1,45224
736.2,45147
736.3,45068
736.4,44989
736.5,44939
736.6,44892
736.7,44821
736.8,44754
736.9,44681
737.0,44613
737.1,44539
737.2,44467
737.3,44413
737.4,44358
737.5,44280
737.6,44208
737.7,44132
737.8,44067
737.9,44001
738.0,43941
738.1,43902
738.2,43869
738.3,43817
738.4,43765
738.5,43716
738.6,43673
738.7,43626
738.8,43580
738.9,43554
739.0,43533
739.1,43492
739.2,43449
739.3,43407
739.4,43369
739.5,43327
739.6,43312
739.7,43291
739.8,43250
739.9,43212
740.0,43176
740.1,43137
740.2,43101
740.3,43064
740.4,43056
740.5,43041
740.6,43009
740.7,42980
740.8,42954
740.9,42929
741.0,42907
741.1,42884
741.2,42860
741.3,42857
741.4,42855
741.5,42833
741.6,42812
741.7,42789
741.8,42768
741.9,42744
742.0,42720
742.1,42718
742.2,42717
742.3,42693
742.4,42669
742.5,42639
742.6,42609
742.7,42575
742.8,42539
742.9,42523
743.0,42505
743.1,42463
743.2,42422
743.3,42377
743.4,42329
743.5,42286
743.6,42242
743.7,42219
743.8,42196
743.9,42152
744.0,42110
744.1,42064
744.2,42016
744.3,41972
744.4,41925
744.5,41899
744.6,41871
744.7,41820
744.8,41770
744.9,41722
745.0,41668
745.1,41618
745.2,41564
745.3,41530
745.4,41495
745.5,41435
745.6,41376
745.7,41318
745.8,41253
745.9,41192
746.0,41127
746.1,41081
746.2,41033
746.3,40961
746.4,40891
746.5,40824
746.6,40751
746.7,40683
746.8,40613
746.9,40561
747.0,40508
747.1,40438
747.2,40366
747.3,40300
747.4,40227
747.5,40160
747.6,40089
747.7,40015
747.8,39959
747.9,39910
748.0,39836
748.1,39768
748.2,39694
748.3,39620
748.4,39552
748.5,39482
748.6,39432
748.7,39393
748.8,39332
748.9,39278
749.0,39221
749.1,39166
749.2,39117
749.3,39068
749.4,39037
749.5,39015
749.6,38969
749.7,38922
749.8,38879
749.9,38833
750.0,38790
750.1,38765
750.2,38735
750.3,38690
750.4,38641
750.5,38593
750.6,38550
750.7,38503
750.8,38456
750.9,38434
751.0,38406
751.1,38363
751.2,38324
751.3,38288
751.4,38248
751.5,38208
751.6,38170
751.7,38129
751.8,38085
751.9,38056
752.0,38030
752.1,37983
752.2,37929
752.3,37872
752.4,37821
752.5,37765
752.6,37708
752.7,37671
752.8,37633
752.9,37573
753.0,37514
753.1,37457
753.2,37393
753.3,37326
753.4,37260
753.5,37188
753.6,37128
753.7,37071
753.8,36995
753.9,36912
754.0,36826
754.1,36745
754.2,36657
754.3,36566
754.4,36494
754.5,36421
754.6,36333
754.7,36238
754.8,36143
754.9,36054
755.0,35958
755.1,35862
755.2,35770
755.3,35691
755.4,35609
755.5,35511
755.6,35419
755.7,35317
755.8,35213
755.9,35117
756.0,35016
756.1,34930
756.2,34846
756.3,34750
756.4,34652
756.5,34558
756.6,34473
756.7,34384
756.8,34298
756.9,34240
757.0,34177
757.1,34100
757.2,34025
757.3,33953
757.4,33887
757.5,33816
757.6,33748
757.7,33686
757.8,33623
757.9,33574
758.0,33532
758.1,33475
758.2,33417
758.3,33360
758.4,33310
758.5,33257
758.6,33205
758.7,33171
758.8,33139
758.9,33091
759.0,33046
759.1,33006
759.2,32964
759.3,32923
759.4,32885
759.5,32847
759.6,32824
759.7,32806
759.8,32772
759.9,32740
760.0,32707
760.1,32677
760.2,32652
760.3,32627
760.4,32621
760.5,32615
760.6,32596
760.7,32577
760.8,32559
760.9,32544
761.0,32525
761.1,32503
761.2,32479
761.3,32467
761.4,32454
761.5,32424
761.6,32394
761.7,32360
761.8,32322
761.9,32285
762.0,32246
762.1,32221
762.2,32193
762.3,32152
762.4,32111
762.5,32066
762.6,32020
762.7,31977
762.8,31932
762.9,31885
763.0,31853
763.1,31820
763.2,31768
763.3,31716
763.4,31667
763.5,31608
763.6,31546
763.7,31484
763.8,31419
763.9,31362
764.0,31308
764.1,31241
764.2,31167
764.3,31098
764.4,31023
764.5,30948
764.6,30896
764.7,30837
764.8,30761
764.9,30684
765.0,30608
765.1,30524
765.2,30436
765.3,30353
765.4,30263
765.5,30168
765.6,30087
765.7,30010
765.8,29913
765.9,29823
766.0,29725
766.1,29628
766.2,29537
766.3,29443
766.4,29357
766.5,29278
766.6,29187
766.7,29089
766.8,28991
766.9,28902
767.0,28805
767.1,28707
767.2,28627
767.3,28548
767.4,28455
767.5,28368
767.6,28275
767.7,28186
767.8,28107
767.9,28025
768.0,27946
768.1,27886
768.2,27837
768.3,27776
768.4,27722
768.5,27677
768.6,27634
768.7,27598
768.8,27566
768.9,27548
769.0,27537
769.1,27517
769.2,27498
769.3,27483
769.4,27474
769.5,27469
769.6,27470
769.7,27488
769.8,27512
769.9,27530
770.0,27553
770.1,27579
770.2,27614
770.3,27651
770.4,27694
770.5,27742
770.6,27801
770.7,27863
770.8,27913
770.9,27963
771.0,28008
771.1,28057
771.2,28106
771.3,28149
771.4,28202
771.5,28256
771.6,28293
771.7,28327
771.8,28362
771.9,28393
772.0,28423
772.1,28453
772.2,28492
772.3,28529
772.4,28553
772.5,28574
772.6,28593
772.7,28605
772.8,28614
772.9,28617
773.0,28617
773.1,28626
773.2,28630
773.3,28616
773.4,28597
773.5,28574
773.6,28545
773.7,28515
773.8,28479
773.9,28440
774.0,28397
774.1,28365
774.2,28336
774.3,28286
774.4,28234
774.5,28180
774.6,28125
774.7,28074
774.8,28019
774.9,27975
775.0,27927
775.1,27868
775.2,27811
775.3,27752
775.4,27694
775.5,27637
775.6,27583
775.7,27534
775.8,27484
775.9,27447
776.0,27413
776.1,27369
776.2,27325
776.3,27285
776.4,27240
776.5,27193
776.6,27146
776.7,27102
776.8,27068
776.9,27035
777.0,26990
777.1,26947
777.2,26906
777.3,26871
777.4,26836
777.5,26802
777.6,26769
777.7,26750
777.8,26731
777.9,26697
778.0,26664
778.1,26629
778.2,26593
778.3,26560
778.4,26524
778.5,26486
778.6,26460
778.7,26433
778.8,26396
778.9,26356
779.0,26315
779.1,26272
779.2,26228
779.3,26184
779.4,26137
779.5,26087
779.6,26047
779.7,26011
779.8,25965
779.9,25914
780.0,25864
780.1,25815
780.2,25765
780.3,25719
780.4,25685
780.5,25648
780.6,25600
780.7,25554
780.8,25511
780.9,25466
781.0,25423
781.1,25382
781.2,25346
781.3,25313
781.4,25291
781.5,25271
781.6,25238
781.7,25204
781.8,25170
781.9,25135
782.0,25094
782.1,25051
782.2,25005
782.3,24971
782.4,24937
782.5,24890
782.6,24845
782.7,24801
782.8,24761
782.9,24727
783.0,24692
783.1,24657
783.2,24623
783.3,24601
783.4,24581
783.5,24544
783.6,24505
783.7,24464
783.8,24419
783.9,24375
784.0,24326
784.1,24286
784.2,24242
784.3,24187
784.4,24132
784.5,24072
784.6,24010
784.7,23946
784.8,23883
784.9,23823
785.0,23762
785.1,23709
785.2,23660
785.3,23601
785.4,23545
785.5,23486
785.6,23426
785.7,23365
785.8,23303
785.9,23254
786.0,23200
786.1,23131
786.2,23059
786.3,22986
786.4,22916
786.5,22840
786.6,22763
786.7,22686
786.8,22612
786.9,22554
787.0,22498
787.1,22429
787.2,22362
787.3,22297
787.4,22233
787.5,22175
787.6,22115
787.7,22055
787.8,21996
787.9,21947
788.0,21903
788.1,21846
788.2,21790
788.3,21736
788.4,21685
788.5,21640
788.6,21595
788.7,21551
788.8,21521
788.9,21497
789.0,21465
789.1,21432
789.2,21400
789.3,21371
789.4,21341
789.5,21315
789.6,21299
789.7,21281
789.8,21253
789.9,21225
790.0,21199
790.1,21171
790.2,21144
790.3,21118
790.4,21092
790.5,21069
790.6,21055
790.7,21042
790.8,21020
790.9,21000
791.0,20983
791.1,20968
791.2,20954
791.3,20941
791.4,20927
791.5,20923
791.6,20917
791.7,20898
791.8,20875
791.9,20848
792.0,20819
792.1,20782
792.2,20739
792.3,20694
792.4,20658
792.5,20621
792.6,20576
792.7,20527
792.8,20479
792.9,20432
793.0,20386
793.1,20344
793.2,20299
793.3,20252
793.4,20211
793.5,20173
793.6,20124
793.7,20071
793.8,20016
793.9,19960
794.0,19904
794.1,19850
794.2,19793
794.3,19742
794.4,19690
794.5,19626
794.6,19566
794.7,19500
794.8,19435
794.9,19371
795.0,19308
795.1,19249
795.2,19196
795.3,19157
795.4,19126
795.5,19091
795.6,19061
795.7,19033
795.8,19008
795.9,18987
796.0,18971
796.1,18958
796.2,18947
796.3,18950
796.4,18959
796.5,18961
796.6,18970
796.7,18986
796.8,19006
796.9,19029
797.0,19054
797.1,19079
797.2,19105
797.3,19143
797.4,19183
797.5,19212
797.6,19242
797.7,19273
797.8,19307
797.9,19342
798.0,19378
798.1,19415
798.2,19453
798.3,19491
798.4,19538
798.5,19585
798.6,19616
798.7,19644
798.8,19672
798.9,19699
799.0,19726
799.1,19752
799.2,19777
799.3,19799
799.4,19830
799.5,19862
799.6,19881
799.7,19896
799.8,19907
799.9,19913
800.0,19912