Created as New Dataset,Sample 383 By Administrator Date Thursday, March 07 2024
nm,INT
500.0,96
500.1,95
500.2,94
500.3,93
500.4,92
500.5,91
500.6,91
500.7,90
500.8,89
500.9,88
501.0,88
501.1,87
501.2,87
501.3,86
501.4,86
501.5,86
501.6,86
501.7,87
501.8,87
501.9,88
502.0,89
502.1,90
502.2,92
502.3,93
502.4,95
502.5,96
502.6,98
502.7,100
502.8,101
502.9,103
503.0,104
503.1,106
503.2,108
503.3,109
503.4,111
503.5,113
503.6,115
503.7,117
503.8,119
503.9,121
504.0,123
504.1,124
504.2,126
504.3,128
504.4,130
504.5,132
504.6,133
504.7,135
504.8,137
504.9,138
505.0,140
505.1,141
505.2,143
505.3,144
505.4,145
505.5,146
505.6,147
505.7,148
505.8,149
505.9,149
506.0,150
506.1,150
506.2,150
506.3,151
506.4,151
506.5,151
506.6,151
506.7,150
506.8,150
506.9,149
507.0,148
507.1,147
507.2,145
507.3,144
507.4,142
507.5,141
507.6,139
507.7,138
507.8,136
507.9,135
508.0,134
508.1,133
508.2,132
508.3,131
508.4,130
508.5,129
508.6,129
508.7,129
508.8,129
508.9,129
509.0,129
509.1,129
509.2,129
509.3,129
509.4,129
509.5,128
509.6,128
509.7,127
509.8,126
509.9,125
510.0,124
510.1,123
510.2,122
510.3,122
510.4,121
510.5,120
510.6,120
510.7,120
510.8,119
510.9,119
511.0,119
511.1,119
511.2,119
511.3,119
511.4,120
511.5,120
511.6,120
511.7,120
511.8,121
511.9,121
512.0,121
512.1,120
512.2,120
512.3,120
512.4,119
512.5,119
512.6,118
512.7,117
512.8,116
512.9,116
513.0,115
513.1,114
513.2,113
513.3,112
513.4,111
513.5,111
513.6,110
513.7,109
513.8,108
513.9,108
514.0,107
514.1,107
514.2,107
514.3,107
514.4,107
514.5,107
514.6,107
514.7,108
514.8,109
514.9,109
515.0,110
515.1,111
515.2,112
515.3,113
515.4,115
515.5,116
515.6,118
515.7,119
515.8,121
515.9,122
516.0,124
516.1,126
516.2,128
516.3,130
516.4,132
516.5,133
516.6,135
516.7,137
516.8,139
516.9,141
517.0,143
517.1,145
517.2,147
517.3,149
517.4,152
517.5,154
517.6,156
517.7,158
517.8,160
517.9,161
518.0,163
518.1,165
518.2,166
518.3,167
518.4,168
518.5,169
518.6,170
518.7,171
518.8,171
518.9,171
519.0,171
519.1,171
519.2,171
519.3,171
519.4,171
519.5,170
519.6,170
519.7,169
519.8,169
519.9,169
520.0,169
520.1,169
520.2,169
520.3,169
520.4,169
520.5,170
520.6,170
520.7,171
520.8,171
520.9,172
521.0,172
521.1,173
521.2,174
521.3,175
521.4,176
521.5,177
521.6,179
521.7,181
521.8,183
521.9,185
522.0,187
522.1,190
522.2,193
522.3,195
522.4,198
522.5,201
522.6,204
522.7,207
522.8,210
522.9,213
523.0,216
523.1,220
523.2,223
523.3,226
523.4,230
523.5,233
523.6,237
523.7,240
523.8,244
523.9,248
524.0,252
524.1,255
524.2,259
524.3,263
524.4,267
524.5,271
524.6,275
524.7,279
524.8,283
524.9,286
525.0,290
525.1,293
525.2,296
525.3,299
525.4,301
525.5,303
525.6,306
525.7,308
525.8,310
525.9,313
526.0,315
526.1,317
526.2,320
526.3,323
526.4,326
526.5,329
526.6,332
526.7,335
526.8,338
526.9,342
527.0,345
527.1,349
527.2,352
527.3,356
527.4,361
527.5,365
527.6,370
527.7,375
527.8,381
527.9,387
528.0,393
528.1,399
528.2,406
528.3,412
528.4,420
528.5,427
528.6,435
528.7,443
528.8,451
528.9,460
529.0,469
529.1,478
529.2,487
529.3,496
529.4,506
529.5,515
529.6,525
529.7,535
529.8,545
529.9,555
530.0,565
530.1,576
530.2,586
530.3,597
530.4,608
530.5,620
530.6,631
530.7,642
530.8,653
530.9,665
531.0,676
531.1,688
531.2,699
531.3,711
531.4,722
531.5,733
531.6,744
531.7,755
531.8,766
531.9,777
532.0,788
532.1,799
532.2,809
532.3,820
532.4,830
532.5,841
532.6,852
532.7,863
532.8,873
532.9,883
533.0,894
533.1,904
533.2,915
533.3,926
533.4,937
533.5,948
533.6,958
533.7,969
533.8,980
533.9,991
534.0,1002
534.1,1013
534.2,1025
534.3,1036
534.4,1047
534.5,1058
534.6,1069
534.7,1080
534.8,1092
534.9,1103
535.0,1115
535.1,1127
535.2,1139
535.3,1150
535.4,1162
535.5,1175
535.6,1187
535.7,1200
535.8,1213
535.9,1225
536.0,1237
536.1,1250
536.2,1263
536.3,1276
536.4,1289
536.5,1302
536.6,1315
536.7,1328
536.8,1341
536.9,1354
537.0,1368
537.1,1381
537.2,1394
537.3,1407
537.4,1420
537.5,1433
537.6,1445
537.7,1458
537.8,1471
537.9,1484
538.0,1497
538.1,1509
538.2,1521
538.3,1532
538.4,1544
538.5,1555
538.6,1565
538.7,1575
538.8,1585
538.9,1595
539.0,1604
539.1,1613
539.2,1621
539.3,1630
539.4,1639
539.5,1648
539.6,1658
539.7,1667
539.8,1677
539.9,1687
540.0,1698
540.1,1708
540.2,1720
540.3,1731
540.4,1742
540.5,1753
540.6,1765
540.7,1776
540.8,1787
540.9,1798
541.0,1810
541.1,1821
541.2,1833
541.3,1845
541.4,1857
541.5,1870
541.6,1882
541.7,1894
541.8,1907
541.9,1920
542.0,1934
542.1,1948
542.2,1961
542.3,1975
542.4,1990
542.5,2005
542.6,2021
542.7,2036
542.8,2051
542.9,2067
543.0,2083
543.1,2099
543.2,2115
543.3,2131
543.4,2147
543.5,2162
543.6,2179
543.7,2194
543.8,2209
543.9,2226
544.0,2242
544.1,2259
544.2,2277
544.3,2294
544.4,2312
544.5,2329
544.6,2347
544.7,2366
544.8,2385
544.9,2404
545.0,2423
545.1,2442
545.2,2461
545.3,2479
545.4,2498
545.5,2519
545.6,2539
545.7,2559
545.8,2579
545.9,2600
546.0,2620
546.1,2640
546.2,2661
546.3,2681
546.4,2701
546.5,2722
546.6,2743
546.7,2764
546.8,2785
546.9,2806
547.0,2827
547.1,2849
547.2,2871
547.3,2892
547.4,2914
547.5,2935
547.6,2957
547.7,2979
547.8,3002
547.9,3025
548.0,3048
548.1,3070
548.2,3093
548.3,3118
548.4,3144
548.5,3169
548.6,3193
548.7,3218
548.8,3243
548.9,3269
549.0,3296
549.1,3324
549.2,3351
549.3,3379
549.4,3406
549.5,3434
549.6,3464
549.7,3493
549.8,3521
549.9,3550
550.0,3578
550.1,3607
550.2,3637
550.3,3667
550.4,3696
550.5,3725
550.6,3755
550.7,3786
550.8,3817
550.9,3849
551.0,3881
551.1,3913
551.2,3945
551.3,3978
551.4,4013
551.5,4048
551.6,4083
551.7,4118
551.8,4153
551.9,4189
552.0,4226
552.1,4262
552.2,4298
552.3,4334
552.4,4370
552.5,4406
552.6,4443
552.7,4481
552.8,4520
552.9,4558
553.0,4595
553.1,4634
553.2,4673
553.3,4713
553.4,4755
553.5,4796
553.6,4837
553.7,4879
553.8,4921
553.9,4965
554.0,5009
554.1,5052
554.2,5095
554.3,5139
554.4,5184
554.5,5229
554.6,5274
554.7,5319
554.8,5364
554.9,5409
555.0,5455
555.1,5503
555.2,5552
555.3,5600
555.4,5648
555.5,5697
555.6,5749
555.7,5802
555.8,5854
555.9,5907
556.0,5961
556.1,6016
556.2,6071
556.3,6129
556.4,6187
556.5,6244
556.6,6301
556.7,6360
556.8,6419
556.9,6480
557.0,6543
557.1,6605
557.2,6673
557.3,6737
557.4,6802
557.5,6871
557.6,6940
557.7,7009
557.8,7078
557.9,7148
558.0,7219
558.1,7292
558.2,7366
558.3,7438
558.4,7511
558.5,7584
558.6,7658
558.7,7735
558.8,7811
558.9,7886
559.0,7962
559.1,8038
559.2,8114
559.3,8192
559.4,8271
559.5,8349
559.6,8426
559.7,8504
559.8,8583
559.9,8665
560.0,8747
560.1,8828
560.2,8908
560.3,8990
560.4,9072
560.5,9156
560.6,9242
560.7,9324
560.8,9407
560.9,9491
561.0,9575
561.1,9662
561.2,9749
561.3,9835
561.4,9921
561.5,10008
561.6,10102
561.7,10192
561.8,10283
561.9,10376
562.0,10466
562.1,10556
562.2,10646
562.3,10737
562.4,10831
562.5,10926
562.6,11018
562.7,11110
562.8,11203
562.9,11300
563.0,11397
563.1,11492
563.2,11587
563.3,11682
563.4,11778
563.5,11874
563.6,11974
563.7,12076
563.8,12175
563.9,12274
564.0,12374
564.1,12479
564.2,12583
564.3,12685
564.4,12788
564.5,12892
564.6,12996
564.7,13101
564.8,13208
564.9,13317
565.0,13421
565.1,13525
565.2,13629
565.3,13733
565.4,13839
565.5,13946
565.6,14049
565.7,14151
565.8,14252
565.9,14360
566.0,14468
566.1,14573
566.2,14673
566.3,14773
566.4,14873
566.5,14972
566.6,15075
566.7,15178
566.8,15277
566.9,15376
567.0,15475
567.1,15574
567.2,15677
567.3,15779
567.4,15877
567.5,15975
567.6,16073
567.7,16171
567.8,16273
567.9,16375
568.0,16472
568.1,16570
568.2,16669
568.3,16767
568.4,16870
568.5,16973
568.6,17073
568.7,17173
568.8,17274
568.9,17376
569.0,17483
569.1,17591
569.2,17696
569.3,17801
569.4,17907
569.5,18015
569.6,18127
569.7,18240
569.8,18350
569.9,18460
570.0,18572
570.1,18684
570.2,18802
570.3,18924
570.4,19045
570.5,19160
570.6,19276
570.7,19393
570.8,19510
570.9,19632
571.0,19756
571.1,19875
571.2,19995
571.3,20115
571.4,20241
571.5,20366
571.6,20488
571.7,20609
571.8,20731
571.9,20854
572.0,20977
572.1,21104
572.2,21233
572.3,21357
572.4,21482
572.5,21607
572.6,21738
572.7,21869
572.8,21995
572.9,22121
573.0,22247
573.1,22373
573.2,22499
573.3,22629
573.4,22761
573.5,22887
573.6,23012
573.7,23137
573.8,23260
573.9,23388
574.0,23516
574.1,23638
574.2,23760
574.3,23882
574.4,24009
574.5,24135
574.6,24257
574.7,24380
574.8,24514
574.9,24638
575.0,24763
575.1,24894
575.2,25025
575.3,25152
575.4,25279
575.5,25407
575.6,25535
575.7,25668
575.8,25802
575.9,25931
576.0,26060
576.1,26188
576.2,26318
576.3,26453
576.4,26590
576.5,26722
576.6,26855
576.7,26989
576.8,27124
576.9,27265
577.0,27408
577.1,27543
577.2,27670
577.3,27808
577.4,27947
577.5,28087
577.6,28228
577.7,28370
577.8,28501
577.9,28649
578.0,28793
578.1,28929
578.2,29074
578.3,29208
578.4,29358
578.5,29510
578.6,29652
578.7,29787
578.8,29932
578.9,30079
579.0,30226
579.1,30374
579.2,30522
579.3,30683
579.4,30831
579.5,30980
579.6,31138
579.7,31301
579.8,31462
579.9,31613
580.0,31765
580.1,31917
580.2,32080
580.3,32249
580.4,32413
580.5,32569
580.6,32725
580.7,32897
580.8,33056
580.9,33225
581.0,33392
581.1,33556
581.2,33728
581.3,33888
581.4,34049
581.5,34221
581.6,34399
581.7,34569
581.8,34731
581.9,34895
582.0,35073
582.1,35237
582.2,35400
582.3,35575
582.4,35756
582.5,35930
582.6,36094
582.7,36258
582.8,36423
582.9,36598
583.0,36779
583.1,36954
583.2,37120
583.3,37295
583.4,37457
583.5,37618
583.6,37794
583.7,37972
583.8,38141
583.9,38301
584.0,38461
584.1,38620
584.2,38790
584.3,38953
584.4,39123
584.5,39297
584.6,39456
584.7,39628
584.8,39785
584.9,39941
585.0,40110
585.1,40284
585.2,40448
585.3,40600
585.4,40752
585.5,40914
585.6,41065
585.7,41226
585.8,41386
585.9,41532
586.0,41685
586.1,41825
586.2,41964
586.3,42103
586.4,42260
586.5,42421
586.6,42558
586.7,42694
586.8,42830
586.9,42976
587.0,43115
587.1,43264
587.2,43420
587.3,43563
587.4,43695
587.5,43827
587.6,43959
587.7,44097
587.8,44248
587.9,44397
588.0,44527
588.1,44658
588.2,44798
588.3,44929
588.4,45075
588.5,45220
588.6,45350
588.7,45487
588.8,45613
588.9,45738
589.0,45863
589.1,46008
589.2,46158
589.3,46283
589.4,46408
589.5,46543
589.6,46667
589.7,46789
589.8,46927
589.9,47074
590.0,47205
590.1,47328
590.2,47451
590.3,47573
590.4,47722
590.5,47868
590.6,47993
590.7,48119
590.8,48246
590.9,48385
591.0,48515
591.1,48661
591.2,48811
591.3,48947
591.4,49075
591.5,49202
591.6,49328
591.7,49462
591.8,49610
591.9,49754
592.0,49880
592.1,50006
592.2,50145
592.3,50273
592.4,50422
592.5,50565
592.6,50696
592.7,50834
592.8,50963
592.9,51093
593.0,51234
593.1,51392
593.2,51541
593.3,51674
593.4,51810
593.5,51957
593.6,52093
593.7,52229
593.8,52384
593.9,52544
594.0,52686
594.1,52817
594.2,52946
594.3,53074
594.4,53209
594.5,53359
594.6,53503
594.7,53627
594.8,53749
594.9,53881
595.0,54003
595.1,54148
595.2,54291
595.3,54419
595.4,54539
595.5,54659
595.6,54778
595.7,54905
595.8,55028
595.9,55164
596.0,55307
596.1,55427
596.2,55556
596.3,55674
596.4,55792
596.5,55932
596.6,56075
596.7,56200
596.8,56317
596.9,56433
597.0,56559
597.1,56677
597.2,56814
597.3,56951
597.4,57069
597.5,57194
597.6,57311
597.7,57429
597.8,57547
597.9,57690
598.0,57838
598.1,57956
598.2,58074
598.3,58191
598.4,58318
598.5,58438
598.6,58573
598.7,58716
598.8,58834
598.9,58962
599.0,59080
599.1,59199
599.2,59325
599.3,59470
599.4,59617
599.5,59737
599.6,59859
599.7,59991
599.8,60115
599.9,60260
600.0,60405
600.1,60529
600.2,60660
600.3,60781
600.4,60902
600.5,61022
600.6,61167
600.7,61316
600.8,61432
600.9,61546
601.0,61667
601.1,61777
601.2,61884
601.3,62010
601.4,62145
601.5,62255
601.6,62356
601.7,62455
601.8,62553
601.9,62681
602.0,62803
602.1,62899
602.2,62993
602.3,63085
602.4,63181
602.5,63270
602.6,63379
602.7,63486
602.8,63568
602.9,63653
603.0,63731
603.1,63805
603.2,63882
603.3,63979
603.4,64072
603.5,64139
603.6,64205
603.7,64275
603.8,64339
603.9,64430
604.0,64510
604.1,64570
604.2,64632
604.3,64688
604.4,64743
604.5,64797
604.6,64880
604.7,64957
604.8,65007
604.9,65057
605.0,65111
605.1,65159
605.2,65207
605.3,65280
605.4,65356
605.5,65408
605.6,65456
605.7,65505
605.8,65557
605.9,65613
606.0,65695
606.1,65777
606.2,65836
606.3,65896
606.4,65965
606.5,66029
606.6,66124
606.7,66211
606.8,66279
606.9,66350
607.0,66415
607.1,66479
607.2,66547
607.3,66612
607.4,66695
607.5,66787
607.6,66850
607.7,66918
607.8,66981
607.9,67044
608.0,67133
608.1,67225
608.2,67294
608.3,67358
608.4,67422
608.5,67485
608.6,67553
608.7,67644
608.8,67733
608.9,67796
609.0,67863
609.1,67925
609.2,67985
609.3,68043
609.4,68127
609.5,68215
609.6,68269
609.7,68322
609.8,68371
609.9,68422
610.0,68469
610.1,68536
610.2,68611
610.3,68655
610.4,68703
610.5,68748
610.6,68791
610.7,68861
610.8,68933
610.9,68980
611.0,69024
611.1,69067
611.2,69113
611.3,69156
611.4,69225
611.5,69294
611.6,69337
611.7,69385
611.8,69429
611.9,69474
612.0,69519
612.1,69591
612.2,69670
612.3,69717
612.4,69763
612.5,69810
612.6,69860
612.7,69907
612.8,69976
612.9,70054
613.0,70102
613.1,70147
613.2,70191
613.3,70234
613.4,70307
613.5,70374
613.6,70414
613.7,70453
613.8,70491
613.9,70530
614.0,70568
614.1,70631
614.2,70695
614.3,70733
614.4,70772
614.5,70809
614.6,70847
614.7,70883
614.8,70944
614.9,71008
615.0,71039
615.1,71070
615.2,71099
615.3,71124
615.4,71179
615.5,71222
615.6,71241
615.7,71257
615.8,71270
615.9,71279
616.0,71284
616.1,71316
616.2,71339
616.3,71336
616.4,71330
616.5,71323
616.6,71312
616.7,71301
616.8,71318
616.9,71335
617.0,71325
617.1,71318
617.2,71310
617.3,71302
617.4,71295
617.5,71313
617.6,71332
617.7,71325
617.8,71318
617.9,71309
618.0,71302
618.1,71325
618.2,71341
618.3,71335
618.4,71330
618.5,71326
618.6,71323
618.7,71321
618.8,71319
618.9,71340
619.0,71370
619.1,71371
619.2,71374
619.3,71377
619.4,71383
619.5,71418
619.6,71454
619.7,71466
619.8,71478
619.9,71491
620.0,71505
620.1,71520
620.2,71561
620.3,71600
620.4,71612
620.5,71623
620.6,71633
620.7,71643
620.8,71651
620.9,71684
621.0,71720
621.1,71726
621.2,71730
621.3,71734
621.4,71737
621.5,71738
621.6,71759
621.7,71786
621.8,71781
621.9,71774
622.0,71765
622.1,71756
622.2,71771
622.3,71786
622.4,71773
622.5,71759
622.6,71743
622.7,71728
622.8,71712
622.9,71721
623.0,71728
623.1,71709
623.2,71688
623.3,71667
623.4,71646
623.5,71623
623.6,71621
623.7,71624
623.8,71598
623.9,71572
624.0,71545
624.1,71517
624.2,71489
624.3,71481
624.4,71482
624.5,71453
624.6,71423
624.7,71397
624.8,71372
624.9,71374
625.0,71372
625.1,71350
625.2,71330
625.3,71312
625.4,71296
625.5,71282
625.6,71295
625.7,71309
625.8,71298
625.9,71288
626.0,71281
626.1,71274
626.2,71267
626.3,71283
626.4,71302
626.5,71295
626.6,71288
626.7,71282
626.8,71276
626.9,71300
627.0,71316
627.1,71312
627.2,71308
627.3,71306
627.4,71307
627.5,71309
627.6,71339
627.7,71365
627.8,71370
627.9,71377
628.0,71383
628.1,71390
628.2,71397
628.3,71428
628.4,71460
628.5,71466
628.6,71471
628.7,71475
628.8,71477
628.9,71478
629.0,71503
629.1,71526
629.2,71524
629.3,71521
629.4,71515
629.5,71508
629.6,71528
629.7,71540
629.8,71530
629.9,71519
630.0,71508
630.1,71497
630.2,71484
630.3,71468
630.4,71473
630.5,71486
630.6,71470
630.7,71453
630.8,71432
630.9,71410
631.0,71411
631.1,71410
631.2,71382
631.3,71354
631.4,71324
631.5,71292
631.6,71255
631.7,71241
631.8,71226
631.9,71185
632.0,71142
632.1,71092
632.2,71044
632.3,70994
632.4,70962
632.5,70936
632.6,70876
632.7,70819
632.8,70759
632.9,70694
633.0,70630
633.1,70586
633.2,70548
633.3,70480
633.4,70405
633.5,70336
633.6,70266
633.7,70220
633.8,70172
633.9,70098
634.0,70029
634.1,69960
634.2,69891
634.3,69818
634.4,69771
634.5,69726
634.6,69658
634.7,69589
634.8,69514
634.9,69444
635.0,69375
635.1,69324
635.2,69278
635.3,69211
635.4,69145
635.5,69080
635.6,69011
635.7,68946
635.8,68903
635.9,68870
636.0,68811
636.1,68749
636.2,68694
636.3,68641
636.4,68613
636.5,68586
636.6,68538
636.7,68495
636.8,68455
636.9,68415
637.0,68379
637.1,68369
637.2,68360
637.3,68329
637.4,68298
637.5,68271
637.6,68246
637.7,68224
637.8,68222
637.9,68226
638.0,68208
638.1,68192
638.2,68178
638.3,68164
638.4,68176
638.5,68180
638.6,68165
638.7,68147
638.8,68126
638.9,68105
639.0,68082
639.1,68080
639.2,68073
639.3,68045
639.4,68015
639.5,67984
639.6,67950
639.7,67916
639.8,67904
639.9,67891
640.0,67855
640.1,67816
640.2,67779
640.3,67741
640.4,67730
640.5,67709
640.6,67669
640.7,67632
640.8,67594
640.9,67553
641.0,67515
641.1,67501
641.2,67477
641.3,67433
641.4,67385
641.5,67338
641.6,67290
641.7,67239
641.8,67185
641.9,67148
642.0,67121
642.1,67068
642.2,67015
642.3,66959
642.4,66906
642.5,66875
642.6,66845
642.7,66792
642.8,66737
642.9,66687
643.0,66637
643.1,66584
643.2,66555
643.3,66529
643.4,66484
643.5,66440
643.6,66396
643.7,66357
643.8,66320
643.9,66303
644.0,66293
644.1,66258
644.2,66227
644.3,66197
644.4,66167
644.5,66135
644.6,66121
644.7,66116
644.8,66085
644.9,66051
645.0,66020
645.1,65990
645.2,65980
645.3,65969
645.4,65936
645.5,65905
645.6,65876
645.7,65847
645.8,65817
645.9,65810
646.0,65805
646.1,65781
646.2,65757
646.3,65731
646.4,65709
646.5,65686
646.6,65680
646.7,65679
646.8,65650
646.9,65621
647.0,65589
647.1,65552
647.2,65514
647.3,65493
647.4,65477
647.5,65435
647.6,65389
647.7,65346
647.8,65303
647.9,65281
648.0,65258
648.1,65212
648.2,65169
648.3,65126
648.4,65083
648.5,65037
648.6,65013
648.7,64990
648.8,64945
648.9,64897
649.0,64851
649.1,64805
649.2,64760
649.3,64732
649.4,64707
649.5,64662
649.6,64616
649.7,64569
649.8,64520
649.9,64495
650.0,64466
650.1,64419
650.2,64373
650.3,64322
650.4,64275
650.5,64227
650.6,64199
650.7,64169
650.8,64114
650.9,64061
651.0,64006
651.1,63945
651.2,63886
651.3,63846
651.4,63807
651.5,63745
651.6,63680
651.7,63623
651.8,63566
651.9,63534
652.0,63493
652.1,63435
652.2,63380
652.3,63326
652.4,63271
652.5,63211
652.6,63175
652.7,63132
652.8,63066
652.9,62997
653.0,62932
653.1,62865
653.2,62798
653.3,62725
653.4,62669
653.5,62624
653.6,62554
653.7,62485
653.8,62411
653.9,62341
654.0,62293
654.1,62245
654.2,62176
654.3,62104
654.4,62039
654.5,61974
654.6,61934
654.7,61884
654.8,61817
654.9,61754
655.0,61691
655.1,61622
655.2,61559
655.3,61497
655.4,61453
655.5,61416
655.6,61352
655.7,61294
655.8,61235
655.9,61177
656.0,61117
656.1,61076
656.2,61046
656.3,60991
656.4,60934
656.5,60872
656.6,60814
656.7,60778
656.8,60740
656.9,60681
657.0,60626
657.1,60571
657.2,60516
657.3,60458
657.4,60427
657.5,60400
657.6,60354
657.7,60309
657.8,60262
657.9,60219
658.0,60178
658.1,60155
658.2,60138
658.3,60093
658.4,60050
658.5,60004
658.6,59957
658.7,59906
658.8,59870
658.9,59843
659.0,59788
659.1,59725
659.2,59667
659.3,59610
659.4,59577
659.5,59542
659.6,59484
659.7,59430
659.8,59378
659.9,59328
660.0,59276
660.1,59248
660.2,59223
660.3,59176
660.4,59128
660.5,59076
660.6,59030
660.7,58984
660.8,58956
660.9,58931
661.0,58884
661.1,58837
661.2,58792
661.3,58744
661.4,58725
661.5,58700
661.6,58657
661.7,58614
661.8,58569
661.9,58529
662.0,58491
662.1,58477
662.2,58462
662.3,58424
662.4,58389
662.5,58354
662.6,58321
662.7,58285
662.8,58272
662.9,58260
663.0,58225
663.1,58189
663.2,58155
663.3,58122
663.4,58116
663.5,58100
663.6,58067
663.7,58036
663.8,58005
663.9,57976
664.0,57944
664.1,57938
664.2,57925
664.3,57892
664.4,57859
664.5,57821
664.6,57784
664.7,57744
664.8,57701
664.9,57675
665.0,57657
665.1,57611
665.2,57565
665.3,57513
665.4,57463
665.5,57435
665.6,57406
665.7,57353
665.8,57297
665.9,57243
666.0,57189
666.1,57162
666.2,57126
666.3,57069
666.4,57016
666.5,56962
666.6,56908
666.7,56850
666.8,56793
666.9,56757
667.0,56726
667.1,56665
667.2,56606
667.3,56545
667.4,56483
667.5,56417
667.6,56371
667.7,56336
667.8,56272
667.9,56207
668.0,56136
668.1,56070
668.2,56028
668.3,55986
668.4,55920
668.5,55849
668.6,55782
668.7,55716
668.8,55646
668.9,55603
669.0,55562
669.1,55498
669.2,55433
669.3,55362
669.4,55297
669.5,55232
669.6,55188
669.7,55148
669.8,55075
669.9,55006
670.0,54936
670.1,54864
670.2,54789
670.3,54734
670.4,54689
670.5,54616
670.6,54542
670.7,54463
670.8,54389
670.9,54341
671.0,54290
671.1,54212
671.2,54138
671.3,54065
671.4,53991
671.5,53911
671.6,53857
671.7,53805
671.8,53728
671.9,53651
672.0,53567
672.1,53490
672.2,53414
672.3,53355
672.4,53302
672.5,53216
672.6,53135
672.7,53054
672.8,52967
672.9,52909
673.0,52844
673.1,52759
673.2,52673
673.3,52581
673.4,52498
673.5,52415
673.6,52356
673.7,52293
673.8,52205
673.9,52121
674.0,52039
674.1,51957
674.2,51870
674.3,51809
674.4,51753
674.5,51674
674.6,51597
674.7,51517
674.8,51445
674.9,51405
675.0,51358
675.1,51294
675.2,51236
675.3,51181
675.4,51129
675.5,51073
675.6,51049
675.7,51019
675.8,50970
675.9,50921
676.0,50869
676.1,50820
676.2,50771
676.3,50747
676.4,50721
676.5,50669
676.6,50620
676.7,50571
676.8,50517
676.9,50464
677.0,50436
677.1,50407
677.2,50353
677.3,50296
677.4,50243
677.5,50191
677.6,50167
677.7,50134
677.8,50081
677.9,50031
678.0,49981
678.1,49930
678.2,49874
678.3,49819
678.4,49784
678.5,49756
678.6,49696
678.7,49628
678.8,49563
678.9,49496
679.0,49422
679.1,49368
679.2,49322
679.3,49245
679.4,49165
679.5,49077
679.6,48991
679.7,48929
679.8,48864
679.9,48771
680.0,48671
680.1,48576
680.2,48480
680.3,48383
680.4,48304
680.5,48227
680.6,48127
680.7,48027
680.8,47919
680.9,47819
681.0,47718
681.1,47637
681.2,47563
681.3,47456
681.4,47356
681.5,47257
681.6,47158
681.7,47055
681.8,46973
681.9,46905
682.0,46810
682.1,46716
682.2,46615
682.3,46520
682.4,46451
682.5,46384
682.6,46291
682.7,46195
682.8,46108
682.9,46021
683.0,45929
683.1,45864
683.2,45803
683.3,45720
683.4,45637
683.5,45549
683.6,45468
683.7,45390
683.8,45333
683.9,45284
684.0,45207
684.1,45140
684.2,45076
684.3,45014
684.4,44977
684.5,44940
684.6,44886
684.7,44834
684.8,44779
684.9,44728
685.0,44677
685.1,44649
685.2,44619
685.3,44563
685.4,44511
685.5,44458
685.6,44405
685.7,44349
685.8,44319
685.9,44293
686.0,44244
686.1,44196
686.2,44145
686.3,44099
686.4,44081
686.5,44058
686.6,44017
686.7,43975
686.8,43938
686.9,43903
687.0,43867
687.1,43862
687.2,43853
687.3,43825
687.4,43797
687.5,43766
687.6,43736
687.7,43705
687.8,43696
687.9,43684
688.0,43646
688.1,43608
688.2,43569
688.3,43528
688.4,43485
688.5,43467
688.6,43450
688.7,43407
688.8,43360
688.9,43316
689.0,43270
689.1,43249
689.2,43216
689.3,43160
689.4,43104
689.5,43045
689.6,42984
689.7,42919
689.8,42857
689.9,42817
690.0,42785
690.1,42724
690.2,42658
690.3,42598
690.4,42536
690.5,42497
690.6,42454
690.7,42382
690.8,42312
690.9,42238
691.0,42157
691.1,42078
691.2,42022
691.3,41964
691.4,41881
691.5,41791
691.6,41707
691.7,41622
691.8,41535
691.9,41465
692.0,41396
692.1,41307
692.2,41219
692.3,41131
692.4,41037
692.5,40950
692.6,40886
692.7,40829
692.8,40747
692.9,40672
693.0,40600
693.1,40529
693.2,40456
693.3,40402
693.4,40360
693.5,40294
693.6,40228
693.7,40158
693.8,40094
693.9,40054
694.0,40017
694.1,39959
694.2,39901
694.3,39849
694.4,39800
694.5,39752
694.6,39722
694.7,39698
694.8,39652
694.9,39607
695.0,39560
695.1,39516
695.2,39473
695.3,39450
695.4,39433
695.5,39391
695.6,39354
695.7,39318
695.8,39285
695.9,39276
696.0,39265
696.1,39236
696.2,39207
696.3,39179
696.4,39149
696.5,39122
696.6,39118
696.7,39110
696.8,39083
696.9,39053
697.0,39025
697.1,38994
697.2,38965
697.3,38935
697.4,38927
697.5,38916
697.6,38885
697.7,38853
697.8,38823
697.9,38790
698.0,38760
698.1,38730
698.2,38698
698.3,38686
698.4,38681
698.5,38650
698.6,38621
698.7,38589
698.8,38558
698.9,38526
699.0,38491
699.1,38473
699.2,38462
699.3,38422
699.4,38384
699.5,38342
699.6,38303
699.7,38262
699.8,38241
699.9,38220
700.0,38174
700.1,38128
700.2,38084
700.3,38035
700.4,37988
700.5,37936
700.6,37903
700.7,37867
700.8,37805
700.9,37742
701.0,37682
701.1,37616
701.2,37554
701.3,37489
701.4,37446
701.5,37404
701.6,37338
701.7,37275
701.8,37218
701.9,37154
702.0,37095
702.1,37032
702.2,36991
702.3,36950
702.4,36885
702.5,36821
702.6,36761
702.7,36695
702.8,36632
702.9,36565
703.0,36519
703.1,36472
703.2,36402
703.3,36332
703.4,36267
703.5,36195
703.6,36130
703.7,36062
703.8,36016
703.9,35973
704.0,35907
704.1,35844
704.2,35786
704.3,35725
704.4,35669
704.5,35611
704.6,35576
704.7,35542
704.8,35487
704.9,35435
705.0,35387
705.1,35336
705.2,35291
705.3,35246
705.4,35223
705.5,35201
705.6,35161
705.7,35123
705.8,35083
705.9,35043
706.0,35006
706.1,34969
706.2,34952
706.3,34935
706.4,34897
706.5,34860
706.6,34819
706.7,34779
706.8,34742
706.9,34703
707.0,34685
707.1,34667
707.2,34628
707.3,34592
707.4,34554
707.5,34517
707.6,34484
707.7,34450
707.8,34433
707.9,34415
708.0,34376
708.1,34338
708.2,34297
708.3,34253
708.4,34211
708.5,34166
708.6,34141
708.7,34115
708.8,34071
708.9,34031
709.0,33988
709.1,33946
709.2,33909
709.3,33871
709.4,33853
709.5,33836
709.6,33800
709.7,33768
709.8,33734
709.9,33702
710.0,33672
710.1,33642
710.2,33631
710.3,33620
710.4,33591
710.5,33564
710.6,33536
710.7,33507
710.8,33478
710.9,33447
711.0,33435
711.1,33424
711.2,33393
711.3,33366
711.4,33337
711.5,33308
711.6,33281
711.7,33253
711.8,33244
711.9,33236
712.0,33208
712.1,33181
712.2,33151
712.3,33123
712.4,33091
712.5,33060
712.6,33048
712.7,33036
712.8,33004
712.9,32973
713.0,32939
713.1,32907
713.2,32871
713.3,32834
713.4,32814
713.5,32792
713.6,32748
713.7,32704
713.8,32655
713.9,32607
714.0,32555
714.1,32500
714.2,32466
714.3,32431
714.4,32378
714.5,32327
714.6,32273
714.7,32225
714.8,32174
714.9,32122
715.0,32091
715.1,32061
715.2,32013
715.3,31967
715.4,31918
715.5,31873
715.6,31824
715.7,31774
715.8,31743
715.9,31712
716.0,31660
716.1,31611
716.2,31557
716.3,31507
716.4,31452
716.5,31396
716.6,31361
716.7,31327
716.8,31274
716.9,31225
717.0,31174
717.1,31130
717.2,31085
717.3,31043
717.4,31021
717.5,31001
717.6,30964
717.7,30930
717.8,30895
717.9,30865
718.0,30832
718.1,30820
718.2,30801
718.3,30766
718.4,30730
718.5,30695
718.6,30655
718.7,30617
718.8,30574
718.9,30550
719.0,30517
719.1,30465
719.2,30412
719.3,30360
719.4,30302
719.5,30247
719.6,30188
719.7,30130
719.8,30085
719.9,30038
720.0,29975
720.1,29914
720.2,29849
720.3,29789
720.4,29725
720.5,29665
720.6,29617
720.7,29569
720.8,29505
720.9,29446
721.0,29385
721.1,29331
721.2,29272
721.3,29217
721.4,29176
721.5,29135
721.6,29080
721.7,29028
721.8,28974
721.9,28924
722.0,28870
722.1,28836
722.2,28797
722.3,28744
722.4,28694
722.5,28646
722.6,28595
722.7,28551
722.8,28504
722.9,28478
723.0,28448
723.1,28406
723.2,28368
723.3,28333
723.4,28296
723.5,28265
723.6,28232
723.7,28202
723.8,28186
723.9,28170
724.0,28140
724.1,28110
724.2,28075
724.3,28041
724.4,28002
724.5,27964
724.6,27937
724.7,27912
724.8,27871
724.9,27828
725.0,27785
725.1,27746
725.2,27706
725.3,27669
725.4,27648
725.5,27630
725.6,27598
725.7,27565
725.8,27532
725.9,27502
726.0,27470
726.1,27456
726.2,27437
726.3,27405
726.4,27373
726.5,27338
726.6,27301
726.7,27268
726.8,27234
726.9,27218
727.0,27198
727.1,27165
727.2,27134
727.3,27102
727.4,27069
727.5,27042
727.6,27015
727.7,26990
727.8,26980
727.9,26973
728.0,26952
728.1,26932
728.2,26914
728.3,26895
728.4,26876
728.5,26859
728.6,26853
728.7,26849
728.8,26830
728.9,26809
729.0,26789
729.1,26769
729.2,26751
729.3,26735
729.4,26733
729.5,26734
729.6,26723
729.7,26711
729.8,26701
729.9,26690
730.0,26679
730.1,26680
730.2,26676
730.3,26657
730.4,26633
730.5,26608
730.6,26584
730.7,26554
730.8,26525
730.9,26508
731.0,26487
731.1,26452
731.2,26416
731.3,26381
731.4,26342
731.5,26301
731.6,26262
731.7,26221
731.8,26192
731.9,26168
732.0,26126
732.1,26089
732.2,26048
732.3,26009
732.4,25968
732.5,25925
732.6,25894
732.7,25866
732.8,25820
732.9,25776
733.0,25728
733.1,25683
733.2,25636
733.3,25589
733.4,25558
733.5,25534
733.6,25498
733.7,25467
733.8,25434
733.9,25404
734.0,25373
734.1,25357
734.2,25341
734.3,25310
734.4,25279
734.5,25249
734.6,25216
734.7,25184
734.8,25151
734.9,25133
735.0,25114
735.1,25081
735.2,25048
735.3,25012
735.4,24974
735.5,24937
735.6,24896
735.7,24867
735.8,24837
735.9,24792
736.0,24748
736.1,24701
736.2,24656
736.3,24607
736.4,24555
736.5,24517
736.6,24478
736.7,24423
736.8,24369
736.9,24308
737.0,24247
737.1,24180
737.2,24114
737.3,24058
737.4,24000
737.5,23928
737.6,23858
737.7,23782
737.8,23712
737.9,23637
738.0,23566
738.1,23504
738.2,23442
738.3,23368
738.4,23288
738.5,23209
738.6,23137
738.7,23060
738.8,22985
738.9,22920
739.0,22857
739.1,22785
739.2,22708
739.3,22633
739.4,22565
739.5,22493
739.6,22438
739.7,22382
739.8,22315
739.9,22252
740.0,22193
740.1,22132
740.2,22078
740.3,22024
740.4,21988
740.5,21951
740.6,21904
740.7,21858
740.8,21816
740.9,21773
741.0,21736
741.1,21697
741.2,21658
741.3,21630
741.4,21600
741.5,21557
741.6,21517
741.7,21473
741.8,21433
741.9,21388
742.0,21343
742.1,21310
742.2,21278
742.3,21236
742.4,21198
742.5,21159
742.6,21125
742.7,21088
742.8,21052
742.9,21028
743.0,21004
743.1,20970
743.2,20936
743.3,20901
743.4,20865
743.5,20832
743.6,20796
743.7,20771
743.8,20745
743.9,20706
744.0,20669
744.1,20628
744.2,20586
744.3,20546
744.4,20503
744.5,20471
744.6,20440
744.7,20397
744.8,20357
744.9,20321
745.0,20283
745.1,20248
745.2,20212
745.3,20187
745.4,20163
745.5,20127
745.6,20090
745.7,20054
745.8,20014
745.9,19976
746.0,19936
746.1,19908
746.2,19880
746.3,19843
746.4,19807
746.5,19775
746.6,19741
746.7,19709
746.8,19675
746.9,19651
747.0,19626
747.1,19591
747.2,19553
747.3,19516
747.4,19475
747.5,19437
747.6,19398
747.7,19359
747.8,19329
747.9,19304
748.0,19266
748.1,19231
748.2,19195
748.3,19161
748.4,19129
748.5,19098
748.6,19078
748.7,19064
748.8,19041
748.9,19022
749.0,19006
749.1,18993
749.2,18983
749.3,18974
749.4,18973
749.5,18974
749.6,18964
749.7,18951
749.8,18939
749.9,18924
750.0,18908
750.1,18901
750.2,18893
750.3,18877
750.4,18861
750.5,18847
750.6,18835
750.7,18824
750.8,18814
750.9,18815
751.0,18814
751.1,18806
751.2,18798
751.3,18791
751.4,18784
751.5,18777
751.6,18769
751.7,18761
751.8,18751
751.9,18749
752.0,18748
752.1,18736
752.2,18720
752.3,18702
752.4,18684
752.5,18662
752.6,18638
752.7,18622
752.8,18606
752.9,18578
753.0,18550
753.1,18524
753.2,18493
753.3,18461
753.4,18429
753.5,18393
753.6,18362
753.7,18331
753.8,18290
753.9,18244
754.0,18197
754.1,18154
754.2,18109
754.3,18064
754.4,18030
754.5,17997
754.6,17958
754.7,17919
754.8,17881
754.9,17846
755.0,17809
755.1,17770
755.2,17732
755.3,17699
755.4,17666
755.5,17624
755.6,17583
755.7,17538
755.8,17493
755.9,17452
756.0,17408
756.1,17373
756.2,17340
756.3,17301
756.4,17262
756.5,17224
756.6,17192
756.7,17159
756.8,17128
756.9,17110
757.0,17092
757.1,17068
757.2,17045
757.3,17024
757.4,17005
757.5,16983
757.6,16960
757.7,16937
757.8,16913
757.9,16895
758.0,16878
758.1,16854
758.2,16828
758.3,16802
758.4,16779
758.5,16756
758.6,16734
758.7,16721
758.8,16708
758.9,16686
759.0,16664
759.1,16643
759.2,16620
759.3,16596
759.4,16574
759.5,16550
759.6,16532
759.7,16516
759.8,16494
759.9,16474
760.0,16453
760.1,16433
760.2,16415
760.3,16398
760.4,16388
760.5,16378
760.6,16363
760.7,16348
760.8,16333
760.9,16321
761.0,16308
761.1,16297
761.2,16286
761.3,16283
761.4,16281
761.5,16271
761.6,16262
761.7,16251
761.8,16240
761.9,16228
762.0,16216
762.1,16212
762.2,16206
762.3,16195
762.4,16184
762.5,16171
762.6,16158
762.7,16144
762.8,16130
762.9,16114
763.0,16105
763.1,16094
763.2,16073
763.3,16051
763.4,16030
763.5,16006
763.6,15981
763.7,15958
763.8,15933
763.9,15912
764.0,15892
764.1,15862
764.2,15830
764.3,15798
764.4,15761
764.5,15720
764.6,15689
764.7,15653
764.8,15608
764.9,15563
765.0,15520
765.1,15474
765.2,15428
765.3,15385
765.4,15340
765.5,15294
765.6,15256
765.7,15220
765.8,15174
765.9,15131
766.0,15083
766.1,15034
766.2,14987
766.3,14937
766.4,14892
766.5,14848
766.6,14797
766.7,14743
766.8,14687
766.9,14635
767.0,14579
767.1,14524
767.2,14480
767.3,14438
767.4,14391
767.5,14348
767.6,14304
767.7,14263
767.8,14227
767.9,14190
768.0,14151
768.1,14117
768.2,14086
768.3,14043
768.4,13999
768.5,13957
768.6,13913
768.7,13872
768.8,13830
768.9,13794
769.0,13764
769.1,13733
769.2,13704
769.3,13678
769.4,13659
769.5,13642
769.6,13627
769.7,13621
769.8,13618
769.9,13610
770.0,13604
770.1,13598
770.2,13592
770.3,13585
770.4,13577
770.5,13567
770.6,13560
770.7,13554
770.8,13537
770.9,13519
771.0,13502
771.1,13483
771.2,13465
771.3,13449
771.4,13439
771.5,13432
771.6,13421
771.7,13411
771.8,13400
771.9,13389
772.0,13376
772.1,13360
772.2,13350
772.3,13337
772.4,13314
772.5,13288
772.6,13260
772.7,13234
772.8,13207
772.9,13180
773.0,13155
773.1,13137
773.2,13120
773.3,13094
773.4,13070
773.5,13047
773.6,13025
773.7,13002
773.8,12976
773.9,12948
774.0,12919
774.1,12895
774.2,12873
774.3,12841
774.4,12808
774.5,12773
774.6,12738
774.7,12706
774.8,12674
774.9,12648
775.0,12623
775.1,12595
775.2,12570
775.3,12546
775.4,12526
775.5,12509
775.6,12492
775.7,12477
775.8,12461
775.9,12450
776.0,12439
776.1,12421
776.2,12402
776.3,12383
776.4,12359
776.5,12335
776.6,12311
776.7,12289
776.8,12272
776.9,12255
777.0,12235
777.1,12216
777.2,12200
777.3,12188
777.4,12175
777.5,12164
777.6,12153
777.7,12149
777.8,12146
777.9,12138
778.0,12128
778.1,12117
778.2,12105
778.3,12092
778.4,12079
778.5,12064
778.6,12055
778.7,12043
778.8,12025
778.9,12005
779.0,11986
779.1,11967
779.2,11947
779.3,11927
779.4,11905
779.5,11881
779.6,11862
779.7,11845
779.8,11823
779.9,11799
780.0,11774
780.1,11748
780.2,11721
780.3,11696
780.4,11677
780.5,11657
780.6,11631
780.7,11607
780.8,11584
780.9,11560
781.0,11540
781.1,11521
781.2,11503
781.3,11489
781.4,11481
781.5,11474
781.6,11462
781.7,11450
781.8,11438
781.9,11428
782.0,11415
782.1,11403
782.2,11390
782.3,11383
782.4,11376
782.5,11364
782.6,11355
782.7,11349
782.8,11344
782.9,11341
783.0,11339
783.1,11339
783.2,11341
783.3,11350
783.4,11362
783.5,11371
783.6,11380
783.7,11391
783.8,11402
783.9,11414
784.0,11428
784.1,11450
784.2,11471
784.3,11486
784.4,11499
784.5,11512
784.6,11524
784.7,11537
784.8,11549
784.9,11561
785.0,11572
785.1,11587
785.2,11602
785.3,11610
785.4,11618
785.5,11625
785.6,11629
785.7,11632
785.8,11632
785.9,11636
786.0,11634
786.1,11625
786.2,11615
786.3,11603
786.4,11590
786.5,11574
786.6,11556
786.7,11537
786.8,11516
786.9,11500
787.0,11484
787.1,11460
787.2,11434
787.3,11405
787.4,11375
787.5,11345
787.6,11310
787.7,11272
787.8,11231
787.9,11193
788.0,11155
788.1,11105
788.2,11051
788.3,10996
788.4,10939
788.5,10886
788.6,10830
788.7,10773
788.8,10721
788.9,10673
789.0,10623
789.1,10572
789.2,10523
789.3,10475
789.4,10427
789.5,10382
789.6,10340
789.7,10296
789.8,10247
789.9,10199
790.0,10153
790.1,10104
790.2,10053
790.3,10003
790.4,9954
790.5,9908
790.6,9867
790.7,9825
790.8,9777
790.9,9731
791.0,9690
791.1,9645
791.2,9601
791.3,9559
791.4,9517
791.5,9482
791.6,9448
791.7,9407
791.8,9367
791.9,9328
792.0,9291
792.1,9252
792.2,9212
792.3,9172
792.4,9136
792.5,9102
792.6,9064
792.7,9025
792.8,8988
792.9,8951
793.0,8915
793.1,8883
793.2,8849
793.3,8814
793.4,8784
793.5,8755
793.6,8723
793.7,8688
793.8,8652
793.9,8614
794.0,8576
794.1,8542
794.2,8507
794.3,8475
794.4,8445
794.5,8412
794.6,8381
794.7,8349
794.8,8318
794.9,8289
795.0,8261
795.1,8232
795.2,8204
795.3,8181
795.4,8159
795.5,8133
795.6,8109
795.7,8084
795.8,8058
795.9,8033
796.0,8007
796.1,7980
796.2,7953
796.3,7929
796.4,7904
796.5,7873
796.6,7842
796.7,7811
796.8,7781
796.9,7754
797.0,7728
797.1,7705
797.2,7684
797.3,7668
797.4,7654
797.5,7636
797.6,7620
797.7,7604
797.8,7588
797.9,7572
798.0,7557
798.1,7543
798.2,7531
798.3,7522
798.4,7520
798.5,7523
798.6,7524
798.7,7528
798.8,7534
798.9,7545
799.0,7557
799.1,7572
799.2,7590
799.3,7608
799.4,7632
799.5,7657
799.6,7680
799.7,7703
799.8,7729
799.9,7756
800.0,7783
