nm,INT
500.0,117
500.1,118
500.2,119
500.3,120
500.4,122
500.5,123
500.6,125
500.7,127
500.8,129
500.9,131
501.0,133
501.1,135
501.2,137
501.3,139
501.4,142
501.5,144
501.6,147
501.7,150
501.8,152
501.9,155
502.0,157
502.1,159
502.2,161
502.3,164
502.4,165
502.5,167
502.6,169
502.7,170
502.8,172
502.9,173
503.0,175
503.1,176
503.2,178
503.3,179
503.4,180
503.5,181
503.6,182
503.7,183
503.8,184
503.9,184
504.0,184
504.1,184
504.2,183
504.3,182
504.4,181
504.5,180
504.6,178
504.7,177
504.8,175
504.9,173
505.0,171
505.1,168
505.2,166
505.3,163
505.4,160
505.5,157
505.6,155
505.7,152
505.8,149
505.9,146
506.0,144
506.1,141
506.2,139
506.3,137
506.4,135
506.5,132
506.6,130
506.7,128
506.8,126
506.9,124
507.0,122
507.1,120
507.2,119
507.3,117
507.4,116
507.5,115
507.6,114
507.7,113
507.8,113
507.9,112
508.0,112
508.1,112
508.2,112
508.3,112
508.4,112
508.5,112
508.6,112
508.7,113
508.8,114
508.9,115
509.0,116
509.1,117
509.2,118
509.3,120
509.4,122
509.5,124
509.6,126
509.7,128
509.8,131
509.9,133
510.0,136
510.1,139
510.2,141
510.3,144
510.4,147
510.5,149
510.6,152
510.7,154
510.8,156
510.9,158
511.0,159
511.1,161
511.2,162
511.3,162
511.4,163
511.5,164
511.6,165
511.7,166
511.8,167
511.9,168
512.0,168
512.1,169
512.2,171
512.3,172
512.4,174
512.5,175
512.6,177
512.7,179
512.8,181
512.9,183
513.0,185
513.1,188
513.2,190
513.3,193
513.4,196
513.5,198
513.6,201
513.7,204
513.8,206
513.9,209
514.0,212
514.1,216
514.2,219
514.3,223
514.4,226
514.5,231
514.6,235
514.7,240
514.8,245
514.9,250
515.0,256
515.1,262
515.2,268
515.3,274
515.4,280
515.5,286
515.6,293
515.7,300
515.8,306
515.9,312
516.0,318
516.1,324
516.2,330
516.3,336
516.4,342
516.5,347
516.6,352
516.7,357
516.8,362
516.9,366
517.0,370
517.1,374
517.2,377
517.3,380
517.4,383
517.5,385
517.6,387
517.7,389
517.8,390
517.9,390
518.0,391
518.1,391
518.2,391
518.3,390
518.4,390
518.5,389
518.6,388
518.7,386
518.8,385
518.9,383
519.0,380
519.1,378
519.2,375
519.3,372
519.4,368
519.5,364
519.6,360
519.7,356
519.8,351
519.9,347
520.0,342
520.1,337
520.2,331
520.3,325
520.4,320
520.5,314
520.6,309
520.7,303
520.8,297
520.9,292
521.0,287
521.1,282
521.2,277
521.3,273
521.4,269
521.5,265
521.6,261
521.7,257
521.8,254
521.9,251
522.0,248
522.1,246
522.2,243
522.3,241
522.4,238
522.5,236
522.6,235
522.7,233
522.8,232
522.9,231
523.0,230
523.1,229
523.2,229
523.3,228
523.4,228
523.5,228
523.6,229
523.7,229
523.8,230
523.9,231
524.0,232
524.1,234
524.2,235
524.3,237
524.4,239
524.5,242
524.6,244
524.7,247
524.8,250
524.9,253
525.0,256
525.1,260
525.2,264
525.3,268
525.4,273
525.5,277
525.6,282
525.7,287
525.8,292
525.9,296
526.0,302
526.1,307
526.2,312
526.3,318
526.4,323
526.5,329
526.6,336
526.7,343
526.8,351
526.9,359
527.0,368
527.1,377
527.2,387
527.3,397
527.4,408
527.5,419
527.6,431
527.7,443
527.8,456
527.9,469
528.0,483
528.1,497
528.2,511
528.3,525
528.4,540
528.5,555
528.6,571
528.7,586
528.8,602
528.9,618
529.0,634
529.1,651
529.2,668
529.3,685
529.4,703
529.5,721
529.6,740
529.7,759
529.8,778
529.9,797
530.0,816
530.1,836
530.2,856
530.3,876
530.4,896
530.5,916
530.6,936
530.7,956
530.8,976
530.9,996
531.0,1016
531.1,1036
531.2,1055
531.3,1074
531.4,1092
531.5,1110
531.6,1128
531.7,1145
531.8,1161
531.9,1178
532.0,1194
532.1,1210
532.2,1225
532.3,1240
532.4,1255
532.5,1270
532.6,1286
532.7,1301
532.8,1315
532.9,1329
533.0,1343
533.1,1358
533.2,1372
533.3,1386
533.4,1400
533.5,1414
533.6,1428
533.7,1441
533.8,1455
533.9,1469
534.0,1482
534.1,1495
534.2,1508
534.3,1521
534.4,1532
534.5,1544
534.6,1556
534.7,1567
534.8,1579
534.9,1591
535.0,1604
535.1,1616
535.2,1629
535.3,1642
535.4,1655
535.5,1669
535.6,1683
535.7,1697
535.8,1711
535.9,1726
536.0,1739
536.1,1754
536.2,1770
536.3,1785
536.4,1801
536.5,1817
536.6,1834
536.7,1851
536.8,1868
536.9,1885
537.0,1902
537.1,1919
537.2,1936
537.3,1953
537.4,1970
537.5,1986
537.6,2001
537.7,2017
537.8,2034
537.9,2051
538.0,2067
538.1,2083
538.2,2099
538.3,2115
538.4,2131
538.5,2147
538.6,2163
538.7,2178
538.8,2194
538.9,2209
539.0,2225
539.1,2241
539.2,2256
539.3,2272
539.4,2288
539.5,2304
539.6,2321
539.7,2337
539.8,2353
539.9,2368
540.0,2383
540.1,2397
540.2,2412
540.3,2426
540.4,2440
540.5,2453
540.6,2467
540.7,2481
540.8,2495
540.9,2509
541.0,2523
541.1,2538
541.2,2552
541.3,2567
541.4,2582
541.5,2597
541.6,2612
541.7,2627
541.8,2642
541.9,2658
542.0,2674
542.1,2690
542.2,2705
542.3,2721
542.4,2739
542.5,2756
542.6,2773
542.7,2790
542.8,2806
542.9,2823
543.0,2840
543.1,2858
543.2,2876
543.3,2893
543.4,2911
543.5,2929
543.6,2948
543.7,2967
543.8,2984
543.9,3003
544.0,3021
544.1,3039
544.2,3058
544.3,3076
544.4,3093
544.5,3110
544.6,3127
544.7,3144
544.8,3162
544.9,3180
545.0,3197
545.1,3215
545.2,3232
545.3,3249
545.4,3267
545.5,3285
545.6,3303
545.7,3321
545.8,3339
545.9,3358
546.0,3377
546.1,3396
546.2,3414
546.3,3433
546.4,3453
546.5,3472
546.6,3493
546.7,3513
546.8,3533
546.9,3552
547.0,3572
547.1,3592
547.2,3613
547.3,3633
547.4,3653
547.5,3674
547.6,3696
547.7,3719
547.8,3743
547.9,3768
548.0,3793
548.1,3819
548.2,3845
548.3,3874
548.4,3904
548.5,3933
548.6,3961
548.7,3990
548.8,4019
548.9,4049
549.0,4081
549.1,4113
549.2,4144
549.3,4176
549.4,4209
549.5,4241
549.6,4276
549.7,4311
549.8,4345
549.9,4381
550.0,4417
550.1,4454
550.2,4493
550.3,4532
550.4,4572
550.5,4613
550.6,4655
550.7,4697
550.8,4741
550.9,4785
551.0,4828
551.1,4871
551.2,4915
551.3,4959
551.4,5004
551.5,5049
551.6,5094
551.7,5139
551.8,5185
551.9,5232
552.0,5282
552.1,5332
552.2,5382
552.3,5433
552.4,5484
552.5,5536
552.6,5589
552.7,5645
552.8,5701
552.9,5754
553.0,5808
553.1,5862
553.2,5916
553.3,5971
553.4,6028
553.5,6083
553.6,6139
553.7,6195
553.8,6253
553.9,6312
554.0,6372
554.1,6431
554.2,6490
554.3,6551
554.4,6615
554.5,6679
554.6,6742
554.7,6806
554.8,6870
554.9,6935
555.0,7000
555.1,7066
555.2,7133
555.3,7198
555.4,7262
555.5,7326
555.6,7392
555.7,7457
555.8,7522
555.9,7586
556.0,7651
556.1,7717
556.2,7784
556.3,7853
556.4,7924
556.5,7993
556.6,8064
556.7,8135
556.8,8207
556.9,8281
557.0,8357
557.1,8431
557.2,8511
557.3,8586
557.4,8661
557.5,8740
557.6,8818
557.7,8895
557.8,8972
557.9,9050
558.0,9129
558.1,9212
558.2,9295
558.3,9377
558.4,9460
558.5,9545
558.6,9630
558.7,9720
558.8,9811
558.9,9901
559.0,9992
559.1,10085
559.2,10179
559.3,10276
559.4,10375
559.5,10472
559.6,10569
559.7,10668
559.8,10768
559.9,10872
560.0,10976
560.1,11079
560.2,11183
560.3,11287
560.4,11393
560.5,11503
560.6,11613
560.7,11721
560.8,11829
560.9,11937
561.0,12046
561.1,12157
561.2,12269
561.3,12378
561.4,12486
561.5,12594
561.6,12710
561.7,12820
561.8,12931
561.9,13044
562.0,13152
562.1,13260
562.2,13368
562.3,13476
562.4,13587
562.5,13701
562.6,13810
562.7,13919
562.8,14029
562.9,14142
563.0,14254
563.1,14363
563.2,14471
563.3,14579
563.4,14687
563.5,14795
563.6,14905
563.7,15016
563.8,15121
563.9,15226
564.0,15331
564.1,15440
564.2,15547
564.3,15650
564.4,15753
564.5,15856
564.6,15959
564.7,16061
564.8,16167
564.9,16274
565.0,16377
565.1,16479
565.2,16582
565.3,16686
565.4,16793
565.5,16902
565.6,17006
565.7,17112
565.8,17218
565.9,17333
566.0,17450
566.1,17563
566.2,17673
566.3,17783
566.4,17895
566.5,18007
566.6,18126
566.7,18245
566.8,18361
566.9,18477
567.0,18595
567.1,18713
567.2,18837
567.3,18963
567.4,19084
567.5,19206
567.6,19329
567.7,19453
567.8,19584
567.9,19715
568.0,19843
568.1,19972
568.2,20102
568.3,20234
568.4,20372
568.5,20511
568.6,20647
568.7,20784
568.8,20922
568.9,21061
569.0,21206
569.1,21351
569.2,21492
569.3,21633
569.4,21775
569.5,21916
569.6,22063
569.7,22211
569.8,22353
569.9,22496
570.0,22640
570.1,22784
570.2,22934
570.3,23090
570.4,23246
570.5,23393
570.6,23541
570.7,23690
570.8,23839
570.9,23993
571.0,24149
571.1,24300
571.2,24450
571.3,24600
571.4,24756
571.5,24910
571.6,25060
571.7,25210
571.8,25360
571.9,25509
572.0,25659
572.1,25813
572.2,25969
572.3,26119
572.4,26269
572.5,26419
572.6,26575
572.7,26730
572.8,26880
572.9,27031
573.0,27181
573.1,27331
573.2,27480
573.3,27634
573.4,27789
573.5,27937
573.6,28084
573.7,28230
573.8,28375
573.9,28526
574.0,28678
574.1,28823
574.2,28969
574.3,29115
574.4,29269
574.5,29422
574.6,29571
574.7,29722
574.8,29886
574.9,30037
575.0,30188
575.1,30346
575.2,30504
575.3,30656
575.4,30807
575.5,30959
575.6,31110
575.7,31269
575.8,31427
575.9,31580
576.0,31732
576.1,31886
576.2,32040
576.3,32203
576.4,32366
576.5,32524
576.6,32682
576.7,32843
576.8,33004
576.9,33175
577.0,33347
577.1,33509
577.2,33662
577.3,33828
577.4,33994
577.5,34162
577.6,34330
577.7,34498
577.8,34653
577.9,34827
578.0,34996
578.1,35155
578.2,35324
578.3,35481
578.4,35660
578.5,35841
578.6,36011
578.7,36174
578.8,36351
578.9,36531
579.0,36711
579.1,36893
579.2,37076
579.3,37276
579.4,37459
579.5,37644
579.6,37839
579.7,38042
579.8,38241
579.9,38428
580.0,38617
580.1,38806
580.2,39010
580.3,39221
580.4,39426
580.5,39621
580.6,39817
580.7,40031
580.8,40231
580.9,40443
581.0,40651
581.1,40856
581.2,41069
581.3,41267
581.4,41464
581.5,41675
581.6,41891
581.7,42096
581.8,42290
581.9,42485
582.0,42693
582.1,42883
582.2,43072
582.3,43273
582.4,43480
582.5,43678
582.6,43864
582.7,44050
582.8,44236
582.9,44433
583.0,44638
583.1,44835
583.2,45020
583.3,45214
583.4,45391
583.5,45567
583.6,45757
583.7,45948
583.8,46125
583.9,46290
584.0,46453
584.1,46615
584.2,46787
584.3,46951
584.4,47124
584.5,47300
584.6,47459
584.7,47630
584.8,47787
584.9,47943
585.0,48114
585.1,48290
585.2,48453
585.3,48605
585.4,48757
585.5,48921
585.6,49074
585.7,49243
585.8,49411
585.9,49564
586.0,49728
586.1,49880
586.2,50032
586.3,50184
586.4,50360
586.5,50542
586.6,50696
586.7,50851
586.8,51007
586.9,51176
587.0,51339
587.1,51515
587.2,51702
587.3,51877
587.4,52040
587.5,52203
587.6,52367
587.7,52540
587.8,52728
587.9,52916
588.0,53080
588.1,53245
588.2,53424
588.3,53594
588.4,53781
588.5,53970
588.6,54144
588.7,54330
588.8,54504
588.9,54678
589.0,54853
589.1,55055
589.2,55262
589.3,55438
589.4,55614
589.5,55806
589.6,55982
589.7,56156
589.8,56348
589.9,56553
590.0,56741
590.1,56918
590.2,57094
590.3,57272
590.4,57484
590.5,57691
590.6,57871
590.7,58052
590.8,58234
590.9,58430
591.0,58614
591.1,58817
591.2,59027
591.3,59219
591.4,59399
591.5,59579
591.6,59757
591.7,59945
591.8,60149
591.9,60347
592.0,60521
592.1,60695
592.2,60883
592.3,61057
592.4,61256
592.5,61448
592.6,61626
592.7,61814
592.8,61991
592.9,62170
593.0,62363
593.1,62575
593.2,62775
593.3,62955
593.4,63136
593.5,63331
593.6,63508
593.7,63683
593.8,63880
593.9,64081
594.0,64260
594.1,64427
594.2,64591
594.3,64755
594.4,64928
594.5,65120
594.6,65304
594.7,65462
594.8,65619
594.9,65788
595.0,65941
595.1,66121
595.2,66297
595.3,66452
595.4,66597
595.5,66740
595.6,66881
595.7,67032
595.8,67175
595.9,67334
596.0,67501
596.1,67639
596.2,67787
596.3,67922
596.4,68056
596.5,68215
596.6,68377
596.7,68517
596.8,68647
596.9,68776
597.0,68914
597.1,69042
597.2,69193
597.3,69344
597.4,69469
597.5,69600
597.6,69719
597.7,69837
597.8,69953
597.9,70097
598.0,70245
598.1,70359
598.2,70472
598.3,70585
598.4,70706
598.5,70823
598.6,70961
598.7,71110
598.8,71229
598.9,71361
599.0,71484
599.1,71608
599.2,71738
599.3,71891
599.4,72049
599.5,72174
599.6,72299
599.7,72433
599.8,72557
599.9,72705
600.0,72852
600.1,72973
600.2,73100
600.3,73216
600.4,73331
600.5,73445
600.6,73590
600.7,73742
600.8,73856
600.9,73971
601.0,74098
601.1,74216
601.2,74335
601.3,74479
601.4,74637
601.5,74768
601.6,74891
601.7,75015
601.8,75140
601.9,75304
602.0,75461
602.1,75585
602.2,75708
602.3,75829
602.4,75956
602.5,76073
602.6,76215
602.7,76356
602.8,76467
602.9,76583
603.0,76689
603.1,76794
603.2,76904
603.3,77039
603.4,77171
603.5,77273
603.6,77375
603.7,77483
603.8,77581
603.9,77711
604.0,77829
604.1,77922
604.2,78016
604.3,78101
604.4,78185
604.5,78267
604.6,78384
604.7,78494
604.8,78571
604.9,78648
605.0,78729
605.1,78803
605.2,78876
605.3,78978
605.4,79081
605.5,79155
605.6,79222
605.7,79288
605.8,79353
605.9,79420
606.0,79515
606.1,79607
606.2,79666
606.3,79723
606.4,79784
606.5,79838
606.6,79926
606.7,80003
606.8,80055
606.9,80109
607.0,80158
607.1,80208
607.2,80262
607.3,80316
607.4,80395
607.5,80486
607.6,80543
607.7,80607
607.8,80664
607.9,80722
608.0,80810
608.1,80901
608.2,80961
608.3,81016
608.4,81068
608.5,81120
608.6,81174
608.7,81257
608.8,81338
608.9,81389
609.0,81444
609.1,81495
609.2,81547
609.3,81601
609.4,81689
609.5,81785
609.6,81846
609.7,81909
609.8,81974
609.9,82044
610.0,82111
610.1,82204
610.2,82308
610.3,82375
610.4,82446
610.5,82510
610.6,82573
610.7,82667
610.8,82763
610.9,82829
611.0,82893
611.1,82957
611.2,83027
611.3,83095
611.4,83194
611.5,83293
611.6,83363
611.7,83437
611.8,83507
611.9,83578
612.0,83648
612.1,83750
612.2,83858
612.3,83927
612.4,83994
612.5,84061
612.6,84134
612.7,84202
612.8,84295
612.9,84397
613.0,84462
613.1,84522
613.2,84580
613.3,84637
613.4,84731
613.5,84817
613.6,84871
613.7,84924
613.8,84976
613.9,85032
614.0,85085
614.1,85167
614.2,85247
614.3,85295
614.4,85344
614.5,85386
614.6,85426
614.7,85464
614.8,85531
614.9,85602
615.0,85633
615.1,85663
615.2,85694
615.3,85721
615.4,85783
615.5,85832
615.6,85854
615.7,85874
615.8,85891
615.9,85906
616.0,85919
616.1,85966
616.2,86006
616.3,86016
616.4,86026
616.5,86037
616.6,86047
616.7,86057
616.8,86098
616.9,86139
617.0,86147
617.1,86153
617.2,86158
617.3,86162
617.4,86164
617.5,86197
617.6,86229
617.7,86229
617.8,86229
617.9,86229
618.0,86229
618.1,86267
618.2,86293
618.3,86291
618.4,86289
618.5,86287
618.6,86284
618.7,86281
618.8,86277
618.9,86300
619.0,86333
619.1,86330
619.2,86328
619.3,86328
619.4,86329
619.5,86363
619.6,86398
619.7,86402
619.8,86407
619.9,86413
620.0,86418
620.1,86424
620.2,86461
620.3,86499
620.4,86505
620.5,86512
620.6,86519
620.7,86524
620.8,86528
620.9,86561
621.0,86599
621.1,86601
621.2,86602
621.3,86601
621.4,86599
621.5,86596
621.6,86619
621.7,86654
621.8,86653
621.9,86652
622.0,86652
622.1,86652
622.2,86682
622.3,86713
622.4,86711
622.5,86709
622.6,86705
622.7,86701
622.8,86695
622.9,86719
623.0,86742
623.1,86734
623.2,86724
623.3,86715
623.4,86705
623.5,86695
623.6,86713
623.7,86736
623.8,86724
623.9,86711
624.0,86696
624.1,86679
624.2,86662
624.3,86671
624.4,86689
624.5,86670
624.6,86647
624.7,86624
624.8,86600
624.9,86605
625.0,86603
625.1,86572
625.2,86539
625.3,86503
625.4,86462
625.5,86421
625.6,86410
625.7,86398
625.8,86354
625.9,86306
626.0,86261
626.1,86216
626.2,86171
626.3,86150
626.4,86133
626.5,86084
626.6,86035
626.7,85984
626.8,85930
626.9,85913
627.0,85888
627.1,85837
627.2,85783
627.3,85735
627.4,85688
627.5,85641
627.6,85625
627.7,85604
627.8,85557
627.9,85511
628.0,85464
628.1,85413
628.2,85365
628.3,85348
628.4,85332
628.5,85286
628.6,85239
628.7,85195
628.8,85153
628.9,85109
629.0,85095
629.1,85083
629.2,85040
629.3,84998
629.4,84951
629.5,84906
629.6,84896
629.7,84877
629.8,84834
629.9,84790
630.0,84748
630.1,84708
630.2,84668
630.3,84626
630.4,84608
630.5,84600
630.6,84558
630.7,84514
630.8,84465
630.9,84417
631.0,84399
631.1,84378
631.2,84328
631.3,84281
631.4,84234
631.5,84188
631.6,84139
631.7,84120
631.8,84103
631.9,84057
632.0,84011
632.1,83960
632.2,83913
632.3,83867
632.4,83845
632.5,83833
632.6,83789
632.7,83750
632.8,83714
632.9,83676
633.0,83642
633.1,83633
633.2,83633
633.3,83600
633.4,83563
633.5,83530
633.6,83495
633.7,83488
633.8,83480
633.9,83442
634.0,83408
634.1,83375
634.2,83343
634.3,83311
634.4,83309
634.5,83309
634.6,83282
634.7,83255
634.8,83228
634.9,83204
635.0,83183
635.1,83188
635.2,83201
635.3,83187
635.4,83175
635.5,83165
635.6,83155
635.7,83148
635.8,83164
635.9,83188
636.0,83180
636.1,83168
636.2,83154
636.3,83139
636.4,83151
636.5,83162
636.6,83144
636.7,83127
636.8,83110
636.9,83092
637.0,83075
637.1,83086
637.2,83098
637.3,83082
637.4,83063
637.5,83043
637.6,83022
637.7,83000
637.8,83000
637.9,83003
638.0,82976
638.1,82947
638.2,82917
638.3,82882
638.4,82879
638.5,82865
638.6,82827
638.7,82785
638.8,82737
638.9,82690
639.0,82642
639.1,82619
639.2,82591
639.3,82539
639.4,82487
639.5,82435
639.6,82377
639.7,82323
639.8,82296
639.9,82266
640.0,82206
640.1,82139
640.2,82074
640.3,82007
640.4,81967
640.5,81912
640.6,81831
640.7,81752
640.8,81671
640.9,81583
641.0,81501
641.1,81450
641.2,81388
641.3,81299
641.4,81206
641.5,81119
641.6,81030
641.7,80940
641.8,80844
641.9,80769
642.0,80705
642.1,80610
642.2,80516
642.3,80415
642.4,80320
642.5,80254
642.6,80188
642.7,80096
642.8,79998
642.9,79908
643.0,79819
643.1,79725
643.2,79659
643.3,79598
643.4,79512
643.5,79428
643.6,79339
643.7,79256
643.8,79177
643.9,79119
644.0,79070
644.1,78988
644.2,78911
644.3,78833
644.4,78755
644.5,78671
644.6,78609
644.7,78560
644.8,78482
644.9,78399
645.0,78324
645.1,78252
645.2,78208
645.3,78165
645.4,78101
645.5,78043
645.6,77989
645.7,77938
645.8,77886
645.9,77862
646.0,77841
646.1,77796
646.2,77752
646.3,77705
646.4,77661
646.5,77617
646.6,77595
646.7,77579
646.8,77532
646.9,77488
647.0,77445
647.1,77400
647.2,77357
647.3,77336
647.4,77324
647.5,77284
647.6,77244
647.7,77209
647.8,77176
647.9,77170
648.0,77165
648.1,77136
648.2,77109
648.3,77085
648.4,77062
648.5,77039
648.6,77040
648.7,77041
648.8,77017
648.9,76989
649.0,76962
649.1,76934
649.2,76905
649.3,76897
649.4,76893
649.5,76862
649.6,76830
649.7,76797
649.8,76761
649.9,76755
650.0,76742
650.1,76707
650.2,76671
650.3,76630
650.4,76591
650.5,76551
650.6,76534
650.7,76515
650.8,76469
650.9,76426
651.0,76382
651.1,76334
651.2,76289
651.3,76270
651.4,76252
651.5,76209
651.6,76165
651.7,76125
651.8,76084
651.9,76072
652.0,76049
652.1,76005
652.2,75961
652.3,75917
652.4,75870
652.5,75817
652.6,75792
652.7,75757
652.8,75697
652.9,75631
653.0,75566
653.1,75497
653.2,75426
653.3,75349
653.4,75291
653.5,75243
653.6,75165
653.7,75087
653.8,75002
653.9,74923
654.0,74872
654.1,74821
654.2,74744
654.3,74663
654.4,74588
654.5,74512
654.6,74465
654.7,74404
654.8,74321
654.9,74241
655.0,74158
655.1,74066
655.2,73980
655.3,73894
655.4,73829
655.5,73771
655.6,73679
655.7,73596
655.8,73513
655.9,73432
656.0,73348
656.1,73288
656.2,73242
656.3,73167
656.4,73092
656.5,73011
656.6,72936
656.7,72889
656.8,72840
656.9,72764
657.0,72694
657.1,72625
657.2,72558
657.3,72489
657.4,72450
657.5,72415
657.6,72358
657.7,72303
657.8,72246
657.9,72197
658.0,72151
658.1,72130
658.2,72119
658.3,72078
658.4,72043
658.5,72012
658.6,71982
658.7,71952
658.8,71946
658.9,71951
659.0,71926
659.1,71899
659.2,71875
659.3,71852
659.4,71855
659.5,71859
659.6,71837
659.7,71817
659.8,71797
659.9,71779
660.0,71762
660.1,71774
660.2,71788
660.3,71777
660.4,71766
660.5,71753
660.6,71740
660.7,71725
660.8,71734
660.9,71747
661.0,71729
661.1,71709
661.2,71687
661.3,71661
661.4,71666
661.5,71660
661.6,71629
661.7,71596
661.8,71557
661.9,71516
662.0,71472
662.1,71452
662.2,71426
662.3,71367
662.4,71308
662.5,71245
662.6,71179
662.7,71105
662.8,71058
662.9,71011
663.0,70933
663.1,70847
663.2,70767
663.3,70685
663.4,70635
663.5,70570
663.6,70480
663.7,70394
663.8,70307
663.9,70220
664.0,70127
664.1,70070
664.2,70008
664.3,69922
664.4,69837
664.5,69744
664.6,69661
664.7,69579
664.8,69494
664.9,69432
665.0,69384
665.1,69304
665.2,69223
665.3,69137
665.4,69056
665.5,69006
665.6,68957
665.7,68879
665.8,68797
665.9,68724
666.0,68654
666.1,68618
666.2,68573
666.3,68506
666.4,68444
666.5,68384
666.6,68326
666.7,68265
666.8,68208
666.9,68177
667.0,68155
667.1,68097
667.2,68044
667.3,67991
667.4,67937
667.5,67880
667.6,67848
667.7,67826
667.8,67770
667.9,67713
668.0,67648
668.1,67584
668.2,67547
668.3,67507
668.4,67436
668.5,67357
668.6,67281
668.7,67203
668.8,67118
668.9,67061
669.0,67005
669.1,66918
669.2,66827
669.3,66724
669.4,66626
669.5,66525
669.6,66445
669.7,66368
669.8,66249
669.9,66135
670.0,66017
670.1,65897
670.2,65769
670.3,65666
670.4,65577
670.5,65454
670.6,65332
670.7,65199
670.8,65075
670.9,64981
671.0,64883
671.1,64753
671.2,64631
671.3,64510
671.4,64390
671.5,64264
671.6,64171
671.7,64084
671.8,63970
671.9,63859
672.0,63741
672.1,63635
672.2,63532
672.3,63457
672.4,63390
672.5,63289
672.6,63197
672.7,63109
672.8,63020
672.9,62972
673.0,62919
673.1,62845
673.2,62773
673.3,62699
673.4,62636
673.5,62574
673.6,62544
673.7,62514
673.8,62454
673.9,62400
674.0,62347
674.1,62295
674.2,62242
674.3,62219
674.4,62199
674.5,62150
674.6,62101
674.7,62049
674.8,61999
674.9,61983
675.0,61954
675.1,61899
675.2,61845
675.3,61791
675.4,61735
675.5,61673
675.6,61647
675.7,61612
675.8,61551
675.9,61489
676.0,61421
676.1,61357
676.2,61293
676.3,61257
676.4,61218
676.5,61147
676.6,61080
676.7,61012
676.8,60938
676.9,60868
677.0,60828
677.1,60788
677.2,60717
677.3,60641
677.4,60570
677.5,60497
677.6,60457
677.7,60402
677.8,60322
677.9,60245
678.0,60170
678.1,60096
678.2,60017
678.3,59943
678.4,59896
678.5,59861
678.6,59794
678.7,59723
678.8,59661
678.9,59600
679.0,59536
679.1,59498
679.2,59472
679.3,59413
679.4,59355
679.5,59295
679.6,59239
679.7,59215
679.8,59191
679.9,59138
680.0,59080
680.1,59025
680.2,58970
680.3,58913
680.4,58878
680.5,58845
680.6,58779
680.7,58710
680.8,58632
680.9,58557
681.0,58481
681.1,58428
681.2,58382
681.3,58296
681.4,58215
681.5,58131
681.6,58045
681.7,57954
681.8,57885
681.9,57829
682.0,57737
682.1,57642
682.2,57536
682.3,57435
682.4,57365
682.5,57295
682.6,57193
682.7,57085
682.8,56982
682.9,56879
683.0,56767
683.1,56687
683.2,56610
683.3,56502
683.4,56393
683.5,56273
683.6,56161
683.7,56052
683.8,55968
683.9,55892
684.0,55780
684.1,55679
684.2,55579
684.3,55481
684.4,55412
684.5,55341
684.6,55250
684.7,55161
684.8,55066
684.9,54982
685.0,54900
685.1,54849
685.2,54797
685.3,54717
685.4,54644
685.5,54575
685.6,54507
685.7,54437
685.8,54399
685.9,54362
686.0,54297
686.1,54231
686.2,54161
686.3,54097
686.4,54067
686.5,54027
686.6,53961
686.7,53891
686.8,53825
686.9,53761
687.0,53692
687.1,53659
687.2,53616
687.3,53547
687.4,53475
687.5,53394
687.6,53317
687.7,53238
687.8,53185
687.9,53126
688.0,53031
688.1,52940
688.2,52846
688.3,52750
688.4,52645
688.5,52570
688.6,52496
688.7,52390
688.8,52274
688.9,52164
689.0,52053
689.1,51974
689.2,51879
689.3,51759
689.4,51645
689.5,51530
689.6,51413
689.7,51288
689.8,51168
689.9,51075
690.0,50992
690.1,50877
690.2,50752
690.3,50638
690.4,50525
690.5,50440
690.6,50355
690.7,50242
690.8,50140
690.9,50041
691.0,49938
691.1,49845
691.2,49784
691.3,49728
691.4,49647
691.5,49566
691.6,49495
691.7,49426
691.8,49360
691.9,49319
692.0,49287
692.1,49231
692.2,49179
692.3,49132
692.4,49085
692.5,49043
692.6,49028
692.7,49024
692.8,48991
692.9,48963
693.0,48939
693.1,48917
693.2,48895
693.3,48896
693.4,48908
693.5,48890
693.6,48873
693.7,48856
693.8,48839
693.9,48850
694.0,48859
694.1,48839
694.2,48816
694.3,48794
694.4,48771
694.5,48746
694.6,48744
694.7,48745
694.8,48716
694.9,48687
695.0,48654
695.1,48622
695.2,48590
695.3,48579
695.4,48574
695.5,48532
695.6,48490
695.7,48441
695.8,48388
695.9,48355
696.0,48312
696.1,48242
696.2,48167
696.3,48085
696.4,47991
696.5,47897
696.6,47826
696.7,47747
696.8,47645
696.9,47537
697.0,47435
697.1,47321
697.2,47216
697.3,47107
697.4,47023
697.5,46940
697.6,46836
697.7,46727
697.8,46626
697.9,46517
698.0,46417
698.1,46312
698.2,46205
698.3,46124
698.4,46053
698.5,45950
698.6,45856
698.7,45758
698.8,45670
698.9,45581
699.0,45494
699.1,45436
699.2,45393
699.3,45322
699.4,45259
699.5,45197
699.6,45143
699.7,45088
699.8,45063
699.9,45040
700.0,44992
700.1,44947
700.2,44906
700.3,44864
700.4,44828
700.5,44793
700.6,44786
700.7,44782
700.8,44754
700.9,44730
701.0,44710
701.1,44692
701.2,44677
701.3,44663
701.4,44674
701.5,44686
701.6,44673
701.7,44659
701.8,44646
701.9,44630
702.0,44612
702.1,44591
702.2,44592
702.3,44591
702.4,44562
702.5,44530
702.6,44498
702.7,44459
702.8,44422
702.9,44382
703.0,44365
703.1,44348
703.2,44303
703.3,44256
703.4,44211
703.5,44160
703.6,44111
703.7,44057
703.8,44024
703.9,43988
704.0,43920
704.1,43848
704.2,43778
704.3,43698
704.4,43620
704.5,43536
704.6,43476
704.7,43414
704.8,43324
704.9,43235
705.0,43153
705.1,43064
705.2,42983
705.3,42899
705.4,42841
705.5,42784
705.6,42702
705.7,42624
705.8,42539
705.9,42454
706.0,42374
706.1,42290
706.2,42230
706.3,42169
706.4,42082
706.5,41999
706.6,41911
706.7,41823
706.8,41742
706.9,41658
707.0,41600
707.1,41543
707.2,41462
707.3,41387
707.4,41308
707.5,41229
707.6,41156
707.7,41080
707.8,41029
707.9,40977
708.0,40901
708.1,40827
708.2,40745
708.3,40663
708.4,40586
708.5,40505
708.6,40448
708.7,40391
708.8,40310
708.9,40233
709.0,40150
709.1,40069
709.2,39995
709.3,39918
709.4,39867
709.5,39817
709.6,39744
709.7,39675
709.8,39602
709.9,39531
710.0,39466
710.1,39400
710.2,39358
710.3,39318
710.4,39258
710.5,39203
710.6,39146
710.7,39095
710.8,39050
710.9,39006
711.0,38988
711.1,38972
711.2,38936
711.3,38905
711.4,38875
711.5,38847
711.6,38825
711.7,38803
711.8,38803
711.9,38805
712.0,38787
712.1,38772
712.2,38759
712.3,38749
712.4,38740
712.5,38732
712.6,38747
712.7,38763
712.8,38760
712.9,38759
713.0,38761
713.1,38765
713.2,38768
713.3,38771
713.4,38794
713.5,38816
713.6,38814
713.7,38810
713.8,38803
713.9,38791
714.0,38774
714.1,38750
714.2,38743
714.3,38733
714.4,38697
714.5,38660
714.6,38617
714.7,38572
714.8,38521
714.9,38466
715.0,38431
715.1,38394
715.2,38333
715.3,38273
715.4,38205
715.5,38139
715.6,38066
715.7,37989
715.8,37933
715.9,37875
716.0,37790
716.1,37706
716.2,37612
716.3,37521
716.4,37420
716.5,37314
716.6,37231
716.7,37147
716.8,37038
716.9,36935
717.0,36824
717.1,36723
717.2,36616
717.3,36508
717.4,36427
717.5,36349
717.6,36251
717.7,36158
717.8,36059
717.9,35970
718.0,35876
718.1,35811
718.2,35740
718.3,35653
718.4,35571
718.5,35495
718.6,35417
718.7,35350
718.8,35281
718.9,35240
719.0,35193
719.1,35131
719.2,35072
719.3,35018
719.4,34963
719.5,34915
719.6,34866
719.7,34821
719.8,34796
719.9,34774
720.0,34737
720.1,34705
720.2,34673
720.3,34646
720.4,34620
720.5,34598
720.6,34595
720.7,34597
720.8,34581
720.9,34566
721.0,34552
721.1,34542
721.2,34531
721.3,34522
721.4,34529
721.5,34538
721.6,34525
721.7,34511
721.8,34494
721.9,34475
722.0,34452
722.1,34447
722.2,34431
722.3,34395
722.4,34357
722.5,34318
722.6,34273
722.7,34229
722.8,34181
722.9,34154
723.0,34120
723.1,34067
723.2,34015
723.3,33964
723.4,33909
723.5,33858
723.6,33802
723.7,33747
723.8,33706
723.9,33663
724.0,33600
724.1,33540
724.2,33473
724.3,33411
724.4,33342
724.5,33274
724.6,33220
724.7,33167
724.8,33097
724.9,33023
725.0,32950
725.1,32882
725.2,32810
725.3,32742
725.4,32690
725.5,32643
725.6,32581
725.7,32516
725.8,32451
725.9,32393
726.0,32332
726.1,32296
726.2,32254
726.3,32199
726.4,32147
726.5,32092
726.6,32038
726.7,31992
726.8,31944
726.9,31921
727.0,31895
727.1,31857
727.2,31825
727.3,31795
727.4,31768
727.5,31746
727.6,31726
727.7,31710
727.8,31711
727.9,31718
728.0,31709
728.1,31702
728.2,31696
728.3,31693
728.4,31692
728.5,31695
728.6,31716
728.7,31745
728.8,31757
728.9,31771
729.0,31787
729.1,31808
729.2,31830
729.3,31854
729.4,31895
729.5,31939
729.6,31963
729.7,31988
729.8,32010
729.9,32034
730.0,32054
730.1,32090
730.2,32119
730.3,32130
730.4,32137
730.5,32141
730.6,32141
730.7,32136
730.8,32129
730.9,32137
731.0,32138
731.1,32122
731.2,32103
731.3,32084
731.4,32061
731.5,32034
731.6,32005
731.7,31969
731.8,31942
731.9,31915
732.0,31861
732.1,31806
732.2,31739
732.3,31671
732.4,31593
732.5,31507
732.6,31434
732.7,31365
732.8,31270
732.9,31180
733.0,31078
733.1,30982
733.2,30879
733.3,30772
733.4,30682
733.5,30598
733.6,30492
733.7,30393
733.8,30285
733.9,30185
734.0,30080
734.1,29993
734.2,29906
734.3,29798
734.4,29693
734.5,29595
734.6,29489
734.7,29393
734.8,29292
734.9,29212
735.0,29135
735.1,29046
735.2,28964
735.3,28881
735.4,28803
735.5,28735
735.6,28666
735.7,28618
735.8,28574
735.9,28517
736.0,28467
736.1,28414
736.2,28369
736.3,28323
736.4,28280
736.5,28257
736.6,28237
736.7,28206
736.8,28180
736.9,28155
737.0,28135
737.1,28119
737.2,28106
737.3,28108
737.4,28113
737.5,28104
737.6,28096
737.7,28087
737.8,28078
737.9,28068
738.0,28057
738.1,28057
738.2,28057
738.3,28041
738.4,28024
738.5,28006
738.6,27991
738.7,27974
738.8,27959
738.9,27956
739.0,27956
739.1,27942
739.2,27929
739.3,27916
739.4,27903
739.5,27892
739.6,27896
739.7,27894
739.8,27880
739.9,27865
740.0,27851
740.1,27833
740.2,27815
740.3,27796
740.4,27792
740.5,27781
740.6,27756
740.7,27729
740.8,27704
740.9,27678
741.0,27653
741.1,27629
741.2,27606
741.3,27598
741.4,27592
741.5,27572
741.6,27554
741.7,27537
741.8,27520
741.9,27501
742.0,27480
742.1,27472
742.2,27463
742.3,27438
742.4,27413
742.5,27383
742.6,27354
742.7,27322
742.8,27287
742.9,27266
743.0,27242
743.1,27202
743.2,27161
743.3,27112
743.4,27059
743.5,27007
743.6,26949
743.7,26902
743.8,26850
743.9,26779
744.0,26709
744.1,26630
744.2,26548
744.3,26470
744.4,26387
744.5,26316
744.6,26244
744.7,26153
744.8,26064
744.9,25980
745.0,25890
745.1,25807
745.2,25721
745.3,25650
745.4,25581
745.5,25495
745.6,25411
745.7,25335
745.8,25254
745.9,25179
746.0,25101
746.1,25039
746.2,24978
746.3,24903
746.4,24832
746.5,24769
746.6,24706
746.7,24652
746.8,24600
746.9,24564
747.0,24534
747.1,24499
747.2,24468
747.3,24443
747.4,24422
747.5,24407
747.6,24396
747.7,24389
747.8,24397
747.9,24412
748.0,24417
748.1,24425
748.2,24437
748.3,24452
748.4,24467
748.5,24485
748.6,24515
748.7,24549
748.8,24571
748.9,24592
749.0,24616
749.1,24640
749.2,24662
749.3,24686
749.4,24719
749.5,24756
749.6,24779
749.7,24800
749.8,24818
749.9,24836
750.0,24850
750.1,24877
750.2,24899
750.3,24909
750.4,24916
750.5,24921
750.6,24923
750.7,24923
750.8,24922
750.9,24933
751.0,24938
751.1,24929
751.2,24916
751.3,24900
751.4,24879
751.5,24855
751.6,24828
751.7,24797
751.8,24760
751.9,24729
752.0,24699
752.1,24654
752.2,24606
752.3,24555
752.4,24506
752.5,24450
752.6,24392
752.7,24346
752.8,24299
752.9,24237
753.0,24173
753.1,24114
753.2,24048
753.3,23982
753.4,23921
753.5,23860
753.6,23807
753.7,23759
753.8,23702
753.9,23644
754.0,23587
754.1,23536
754.2,23482
754.3,23427
754.4,23387
754.5,23348
754.6,23302
754.7,23255
754.8,23211
754.9,23173
755.0,23134
755.1,23099
755.2,23069
755.3,23050
755.4,23032
755.5,23005
755.6,22980
755.7,22954
755.8,22931
755.9,22911
756.0,22892
756.1,22886
756.2,22879
756.3,22866
756.4,22855
756.5,22847
756.6,22841
756.7,22837
756.8,22832
756.9,22840
757.0,22844
757.1,22838
757.2,22833
757.3,22829
757.4,22824
757.5,22821
757.6,22819
757.7,22819
757.8,22820
757.9,22833
758.0,22848
758.1,22852
758.2,22857
758.3,22861
758.4,22864
758.5,22866
758.6,22866
758.7,22876
758.8,22886
758.9,22885
759.0,22884
759.1,22883
759.2,22882
759.3,22880
759.4,22877
759.5,22873
759.6,22878
759.7,22882
759.8,22874
759.9,22865
760.0,22855
760.1,22844
760.2,22834
760.3,22823
760.4,22824
760.5,22823
760.6,22812
760.7,22799
760.8,22786
760.9,22772
761.0,22755
761.1,22736
761.2,22718
761.3,22708
761.4,22698
761.5,22677
761.6,22658
761.7,22638
761.8,22619
761.9,22600
762.0,22581
762.1,22571
762.2,22560
762.3,22539
762.4,22519
762.5,22496
762.6,22472
762.7,22450
762.8,22427
762.9,22405
763.0,22394
763.1,22384
763.2,22363
763.3,22340
763.4,22317
763.5,22290
763.6,22261
763.7,22233
763.8,22201
763.9,22177
764.0,22155
764.1,22122
764.2,22088
764.3,22057
764.4,22024
764.5,21990
764.6,21970
764.7,21946
764.8,21910
764.9,21873
765.0,21836
765.1,21795
765.2,21753
765.3,21715
765.4,21675
765.5,21635
765.6,21604
765.7,21576
765.8,21535
765.9,21496
766.0,21455
766.1,21412
766.2,21371
766.3,21327
766.4,21290
766.5,21256
766.6,21213
766.7,21171
766.8,21130
766.9,21095
767.0,21059
767.1,21024
767.2,21001
767.3,20979
767.4,20945
767.5,20911
767.6,20874
767.7,20836
767.8,20798
767.9,20758
768.0,20716
768.1,20682
768.2,20652
768.3,20609
768.4,20566
768.5,20526
768.6,20481
768.7,20436
768.8,20389
768.9,20348
769.0,20310
769.1,20263
769.2,20213
769.3,20162
769.4,20114
769.5,20065
769.6,20016
769.7,19980
769.8,19943
769.9,19895
770.0,19846
770.1,19798
770.2,19745
770.3,19696
770.4,19644
770.5,19589
770.6,19542
770.7,19499
770.8,19442
770.9,19386
771.0,19334
771.1,19278
771.2,19221
771.3,19167
771.4,19120
771.5,19073
771.6,19019
771.7,18970
771.8,18917
771.9,18870
772.0,18823
772.1,18778
772.2,18746
772.3,18716
772.4,18676
772.5,18638
772.6,18604
772.7,18575
772.8,18547
772.9,18519
773.0,18493
773.1,18478
773.2,18464
773.3,18443
773.4,18425
773.5,18407
773.6,18388
773.7,18368
773.8,18345
773.9,18322
774.0,18299
774.1,18283
774.2,18271
774.3,18248
774.4,18226
774.5,18204
774.6,18184
774.7,18168
774.8,18153
774.9,18147
775.0,18141
775.1,18128
775.2,18117
775.3,18106
775.4,18094
775.5,18083
775.6,18072
775.7,18063
775.8,18053
775.9,18049
776.0,18045
776.1,18030
776.2,18012
776.3,17993
776.4,17970
776.5,17945
776.6,17919
776.7,17893
776.8,17874
776.9,17857
777.0,17834
777.1,17814
777.2,17797
777.3,17784
777.4,17771
777.5,17760
777.6,17750
777.7,17749
777.8,17747
777.9,17738
778.0,17726
778.1,17713
778.2,17698
778.3,17685
778.4,17670
778.5,17655
778.6,17649
778.7,17641
778.8,17627
778.9,17612
779.0,17597
779.1,17582
779.2,17567
779.3,17554
779.4,17539
779.5,17526
779.6,17520
779.7,17517
779.8,17504
779.9,17491
780.0,17476
780.1,17460
780.2,17441
780.3,17422
780.4,17410
780.5,17393
780.6,17368
780.7,17342
780.8,17318
780.9,17291
781.0,17264
781.1,17238
781.2,17211
781.3,17186
781.4,17167
781.5,17146
781.6,17114
781.7,17078
781.8,17039
781.9,17000
782.0,16955
782.1,16906
782.2,16855
782.3,16812
782.4,16768
782.5,16713
782.6,16656
782.7,16598
782.8,16540
782.9,16487
783.0,16431
783.1,16374
783.2,16317
783.3,16269
783.4,16224
783.5,16168
783.6,16114
783.7,16062
783.8,16012
783.9,15968
784.0,15924
784.1,15888
784.2,15854
784.3,15817
784.4,15786
784.5,15755
784.6,15728
784.7,15704
784.8,15685
784.9,15669
785.0,15656
785.1,15651
785.2,15649
785.3,15642
785.4,15636
785.5,15631
785.6,15626
785.7,15622
785.8,15619
785.9,15626
786.0,15631
786.1,15632
786.2,15636
786.3,15642
786.4,15649
786.5,15661
786.6,15676
786.7,15695
786.8,15717
786.9,15748
787.0,15781
787.1,15811
787.2,15842
787.3,15875
787.4,15908
787.5,15939
787.6,15972
787.7,16004
787.8,16034
787.9,16070
788.0,16106
788.1,16135
788.2,16162
788.3,16186
788.4,16209
788.5,16228
788.6,16246
788.7,16260
788.8,16277
788.9,16291
789.0,16293
789.1,16292
789.2,16288
789.3,16281
789.4,16273
789.5,16262
789.6,16258
789.7,16252
789.8,16237
789.9,16221
790.0,16204
790.1,16183
790.2,16159
790.3,16132
790.4,16103
790.5,16073
790.6,16047
790.7,16018
790.8,15979
790.9,15937
791.0,15897
791.1,15850
791.2,15801
791.3,15748
791.4,15693
791.5,15646
791.6,15598
791.7,15539
791.8,15480
791.9,15423
792.0,15374
792.1,15323
792.2,15276
792.3,15233
792.4,15201
792.5,15174
792.6,15143
792.7,15113
792.8,15086
792.9,15062
793.0,15040
793.1,15022
793.2,15006
793.3,14993
793.4,14992
793.5,14997
793.6,14996
793.7,14998
793.8,15002
793.9,15006
794.0,15012
794.1,15018
794.2,15024
794.3,15035
794.4,15048
794.5,15052
794.6,15057
794.7,15063
794.8,15070
794.9,15078
795.0,15088
795.1,15098
795.2,15109
795.3,15126
795.4,15144
795.5,15153
795.6,15161
795.7,15169
795.8,15173
795.9,15176
796.0,15174
796.1,15170
796.2,15162
796.3,15159
796.4,15154
796.5,15136
796.6,15114
796.7,15088
796.8,15060
796.9,15029
797.0,14996
797.1,14964
797.2,14930
797.3,14899
797.4,14867
797.5,14825
797.6,14780
797.7,14734
797.8,14685
797.9,14631
798.0,14576
798.1,14517
798.2,14458
798.3,14397
798.4,14343
798.5,14289
798.6,14228
798.7,14171
798.8,14110
798.9,14050
799.0,13990
799.1,13932
799.2,13875
799.3,13820
799.4,13775
799.5,13733
799.6,13682
799.7,13632
799.8,13584
799.9,13536
800.0,13488
