s.1,,Sample 6,,Sample 10,,Blank,
Wavelength (nm),Abs,Wavelength (nm),Abs,Wavelength (nm),Abs,Wavelength (nm),Abs
800,0.0391306029990005,800,0.0402470582395829,800,0.972221390278075,800,0.0430359977121774
799,0.0392070916543646,799,0.0400777731140199,799,0.971882393080653,799,0.043438368595127
798,0.0394019719670928,798,0.0399754446883994,798,0.973167174224105,798,0.0432746129069184
797,0.0389913998893324,797,0.0397186086390489,797,0.971381284730286,797,0.0433983750448742
796,0.0387337865219459,796,0.0393595709006163,796,0.971470691339657,796,0.0434446054034351
795,0.03963493990365,795,0.0400670707877298,795,0.969287756633537,795,0.0437015081166449
794,0.0399462124232987,794,0.0401950333783782,794,0.969490038231521,794,0.0438078680166715
793,0.0400078862918313,793,0.0404061816716663,793,0.970353114793267,793,0.0438927169444602
792,0.0398526540213968,792,0.0406567161143515,792,0.96796094082972,792,0.0442079170566868
791,0.0402913069941143,791,0.0408763083386519,791,0.966206107823779,791,0.0442383547732064
790,0.0403020432509019,790,0.0409626060838039,790,0.965798792539401,790,0.0445663977671528
789,0.0399110227918783,789,0.0409608139655029,789,0.965263577363253,789,0.044408524281666
788,0.0399107673936855,788,0.0405171651486273,788,0.963248080632122,788,0.0450544620168881
787,0.0401616691847345,787,0.0409928171911246,787,0.960146048540789,787,0.044446861757524
786,0.0404697393990128,786,0.0407879804172563,786,0.959287090850183,786,0.0445769820752074
785,0.0404638861304851,785,0.0410274686757504,785,0.956648906501039,785,0.0444883572148928
784,0.040715932242712,784,0.0413311715111231,784,0.957736099240263,784,0.0446065850868628
783,0.0405532280973169,783,0.0412788173580113,783,0.952197683183637,783,0.0449219881452805
782,0.0408510821447064,782,0.041162487900074,782,0.951300599532168,782,0.0448255723476237
781,0.041055322735496,781,0.0412595740244926,781,0.948916782695632,781,0.0450468524323437
780,0.0410649397716094,780,0.0415429300067153,780,0.94711830190492,780,0.0452436820327062
779,0.040756845268337,779,0.0417176600852736,779,0.945778131951002,779,0.0454035837818605
778,0.0413766413314106,778,0.0421070598329811,778,0.944532008430815,778,0.0453343001624669
777,0.0413125806514528,777,0.0419096222563218,777,0.941794115323051,777,0.0454510340638085
776,0.0413346449299524,776,0.0421951429769684,776,0.938161685424672,776,0.0454325246756928
775,0.0414534981439432,775,0.041877294845051,775,0.937177812911024,775,0.0454875090645082
774,0.0414070236327722,774,0.042297310993547,774,0.934226149584561,774,0.0462108005322889
773,0.0416491329002519,773,0.0419771640933906,773,0.931800591917513,773,0.0458808806125865
772,0.0418082294355467,772,0.0425597598457444,772,0.928663912724149,772,0.0460771675890285
771,0.0417322502209828,771,0.0419323726179359,771,0.925532634135304,771,0.0455156219119317
770,0.0420328533816111,770,0.0424690051040648,770,0.922251567043125,770,0.0457065959767791
769,0.0419867160240795,769,0.0422504607930472,769,0.920191589847514,769,0.0455088953595054
768,0.041858110490938,768,0.0421992223895924,768,0.917899518709927,768,0.046257561621765
767,0.0422510599415391,767,0.0424974085284538,767,0.913778368700814,767,0.0456915841339635
766,0.0424544758292561,766,0.0433532079314027,766,0.910805032280319,766,0.0461978154332854
765,0.0426613854111851,765,0.043253908287968,765,0.90801936453643,765,0.0467656354516005
764,0.0418595072429456,764,0.0421815071765179,764,0.905103528098537,764,0.0456575362067539
763,0.041046388756663,763,0.0417465273712339,763,0.900088807149997,763,0.0451146255020325
762,0.0418713085514699,762,0.0423325233015584,762,0.896893605683159,762,0.0458281477443258
761,0.0419144117070973,761,0.0425154221149771,761,0.89221170200489,761,0.0456539705309507
760,0.0417090259194179,760,0.0423904842978895,760,0.889107812972419,760,0.0457337451482299
759,0.0419325436778005,759,0.0421760301554343,759,0.886788658351181,759,0.0456460916414572
758,0.0418544333489697,758,0.0425077426975012,758,0.88135448752826,758,0.045863820124215
757,0.0420818190905286,757,0.0425346069780081,757,0.877463180097393,757,0.0456297017088552
756,0.0423636574689639,756,0.0426952849249812,756,0.873926637565731,756,0.0459759195097853
755,0.0423121203603115,755,0.0427172196345106,755,0.870237951243304,755,0.0458432793798906
754,0.0423387442491515,754,0.0430478024505718,754,0.866408395182887,754,0.0459236066988016
753,0.0419988344474403,753,0.042735156652645,753,0.86133301787454,753,0.0458763061494405
752,0.0419722599001516,752,0.0428090832652453,752,0.857120102234017,752,0.0458320888229655
751,0.0422149413237949,751,0.0424396045208994,751,0.853053997054354,751,0.0457052155557759
750,0.0418499581096631,750,0.0431065164972499,750,0.847814878519975,750,0.0457282231453575
749,0.0420476822505499,749,0.0424963237404394,749,0.843365883563216,749,0.0457849420595493
748,0.0420800793871792,748,0.0424139163202302,748,0.840292552278334,748,0.045349472071286
747,0.0421358674445612,747,0.0422360814772111,747,0.834022347553423,747,0.0452643955436837
746,0.0419529287940937,746,0.0426300300026901,746,0.829176060536005,746,0.0453431791129589
745,0.0418888400728399,745,0.0424885019281207,745,0.824785546215687,745,0.0455743255648289
744,0.0419696082373393,744,0.0425304387660613,744,0.820117708010408,744,0.045445774328257
743,0.0418903794597346,743,0.0426173799642111,743,0.81535772958771,743,0.045523325954669
742,0.0415230483382668,742,0.0427818306461032,742,0.81053948299263,742,0.0455016802417303
741,0.0421334144447908,741,0.042381751126978,741,0.805242630255648,741,0.0453473169383045
740,0.0415574857880713,740,0.0423654268470616,740,0.799888671411176,740,0.0450571900136261
739,0.0416692767760007,739,0.04198534737634,739,0.794378126422646,739,0.0449032716451784
738,0.0418876142686595,738,0.0420422069169029,738,0.788738202851435,738,0.0447215166755461
737,0.0415608470750192,737,0.0417250405809435,737,0.783795550890442,737,0.0445469508491282
736,0.0410530749974042,736,0.041722618396723,736,0.776963377315069,736,0.044242424761401
735,0.0410298300844405,735,0.041073105883663,735,0.771767266499759,735,0.0437797223377982
734,0.0402831839709077,734,0.040755906983428,734,0.7653822262345,734,0.0433756907838737
733,0.0396435612928191,733,0.0403412129566913,733,0.759377984620904,733,0.0429214255307656
732,0.0394029923646219,732,0.0401253264266943,732,0.754334509199997,732,0.0423116067322014
731,0.0392783798770721,731,0.0394544688621691,731,0.747497136743614,731,0.0418424899786058
730,0.0382791746217959,730,0.0388198010693584,730,0.741167222673712,730,0.0410954140943764
729,0.0380520470022072,729,0.0385036490722145,729,0.734738086106963,729,0.0408734073939856
728,0.0373650000817262,728,0.0379305333297211,728,0.728820359220532,728,0.0403047699615556
727,0.0369507394840485,727,0.0377223919822781,727,0.722484870822764,727,0.0397449889045795
726,0.0365709179766251,726,0.0372763961387082,726,0.716931601402436,726,0.039963751546244
725,0.0362374043281619,725,0.0372667780144959,725,0.710556205461081,725,0.0393268092752772
724,0.03626399607846,724,0.036921738280002,724,0.704178428376033,724,0.039016461652221
723,0.0360846950930651,723,0.0365632866365305,723,0.697225684958368,723,0.0388433243018955
722,0.0358017847687129,722,0.0366810382167404,722,0.69144709293591,722,0.0389456128100212
721,0.0356107607600493,721,0.0362417939652126,721,0.685007601446832,721,0.0385894482989228
720,0.0353199877817343,720,0.0359809689668908,720,0.678341141692831,720,0.0380467348359908
719,0.0352125982010219,719,0.0359290870738979,719,0.672089879953559,719,0.0380224353295995
718,0.035335852807562,718,0.0360566798470101,718,0.665173777229226,718,0.0377934086523417
717,0.0348406319713969,717,0.0354970630990448,717,0.65931101904381,717,0.0375935750756051
716,0.0343644943391132,716,0.0350891540506099,716,0.652763714799695,716,0.0370899383951721
715,0.0340897298978694,715,0.0346870391247441,715,0.646186866185807,715,0.0366805593726461
714,0.0340785861405583,714,0.0345143015662797,714,0.639846396627532,714,0.036484869010225
713,0.0336278117698569,713,0.0342325240928392,713,0.632762340399943,713,0.0362749427852637
712,0.0335226573591769,712,0.0341284552778578,712,0.62618126000961,712,0.0360939776514949
711,0.033505208664711,711,0.0343274288085571,711,0.619880268355272,711,0.0360453448744308
710,0.0332924413277198,710,0.03395190900195,710,0.61352057916729,710,0.0359453118020154
709,0.0332378894889556,709,0.0339161661378336,709,0.605718183964327,709,0.0358085031935108
708,0.0333020277326558,708,0.0336888465648847,708,0.600287112649229,708,0.035153510163052
707,0.0329578882022745,707,0.0335600457844633,707,0.593279323260349,707,0.0350204581795869
706,0.0332956554049203,706,0.0335582280229297,706,0.587006922396959,706,0.0348985273219155
705,0.0332948169477052,705,0.0336913362505191,705,0.580512844181676,705,0.0350001714038895
704,0.0330469002664378,704,0.0336448737956097,704,0.573822589600764,704,0.0352091734016763
703,0.0330663976568008,703,0.0334537614671034,703,0.566278045265576,703,0.0349054001022513
702,0.0330034672500004,702,0.0337912991278347,702,0.560850702260438,702,0.0350454040755854
701,0.0331734533678102,701,0.0338627392599245,701,0.554392898620995,701,0.0350696217660462
700,0.0330395819876834,700,0.0336802586576729,700,0.547606777658691,700,0.0349394570349063
699,0.0321433832771491,699,0.0327347539679742,699,0.539947311633463,699,0.0342507583067406
698,0.0315157955609015,698,0.0320700794086143,698,0.533549696505014,698,0.0337548140679657
697,0.0320038935792357,697,0.0327831849041066,697,0.527337443399177,697,0.0339636933161216
696,0.0322083637043156,696,0.0327051118750126,696,0.520420705892373,696,0.0340071384908296
695,0.0324732086155743,695,0.0330697217977972,695,0.515263067376851,695,0.0340659307629341
694,0.032348393192134,694,0.033000981504589,694,0.508565118504919,694,0.0340772421891494
693,0.0320734795425555,693,0.0328695365650309,693,0.501694667811399,693,0.0339706632866342
692,0.0324187316851714,692,0.0330819850254072,692,0.494701819061749,692,0.0340746102963542
691,0.0323963348066805,691,0.0328978216533898,691,0.488364912602196,691,0.0339556877852055
690,0.0321410418216186,690,0.0327601830252953,690,0.482688343783603,690,0.0338125648404039
689,0.0322825274228545,689,0.0329043277635305,689,0.476454051881303,689,0.0336853218658085
688,0.0322791256518694,688,0.0329924630467751,688,0.469739884331589,688,0.0337779246472742
687,0.0321725967836122,687,0.0328869597382028,687,0.463148317559941,687,0.0335123110935623
686,0.0321077331963941,686,0.0327739449253223,686,0.457104551875359,686,0.0335873131205074
685,0.0322562898626954,685,0.0327121733199848,685,0.450675217573799,685,0.033580628968969
684,0.0321485400987276,684,0.0329002509620831,684,0.444094185788768,684,0.0336385244060776
683,0.0322175637782819,683,0.0328502992899502,683,0.438105241314343,683,0.0335416447959495
682,0.0322350165753401,682,0.0331138878000135,682,0.431619134410005,682,0.03378142211811
681,0.03202356713437,681,0.0328814032336662,681,0.425378657126194,681,0.0333641628285568
680,0.0317463803868707,680,0.0323713174923957,680,0.419214857967742,680,0.0329231485622457
679,0.0319040347707912,679,0.0325313471938864,679,0.413036330013921,679,0.0328798954507283
678,0.0318296014000315,678,0.0326371548256634,678,0.407138695077042,678,0.0330968186860182
677,0.0319262391110411,677,0.0325660276045351,677,0.400672593728329,677,0.0332119294679958
676,0.0319674469113408,676,0.0328779967685491,676,0.394754312449352,676,0.0333276856825806
675,0.0321531116025713,675,0.032872133243631,675,0.388871897454415,675,0.0332186079473082
674,0.0320665678228149,674,0.0328655717738935,674,0.383372127809554,674,0.0328411416412469
673,0.032095692547985,673,0.0327429603286934,673,0.377334042097522,673,0.0329886088486331
672,0.0320434923939011,672,0.0327558284378167,672,0.371218955827228,672,0.0330705318864336
671,0.0321350209939341,671,0.0328028937936583,671,0.365684357783413,671,0.0331920622978146
670,0.0323091569606834,670,0.0328067742611511,670,0.359980366065638,670,0.0329937198579125
669,0.0320163775448825,669,0.0329432268416473,669,0.354432657120911,669,0.032932000762954
668,0.0321864237084508,668,0.0329265833063975,668,0.348686814173278,668,0.0326173697410103
667,0.0323192236301158,667,0.0330923210442518,667,0.342950137676229,667,0.0328400807066225
666,0.0322545611949433,666,0.033118357727942,666,0.337540570580188,666,0.0331023500111867
665,0.0322254258141075,665,0.0330490231489984,665,0.332149055459545,665,0.0328356415609092
664,0.0323878282003253,664,0.0329806212715269,664,0.326722740054556,664,0.0329603178469856
663,0.0325131571283729,663,0.0331887372202814,663,0.32148254525817,663,0.0330495818040285
662,0.0323992354580893,662,0.0331453179563031,662,0.316013577305131,662,0.0328203422114127
661,0.0325996783412012,661,0.0332300649920354,661,0.310722063481032,661,0.03314942499809
660,0.0324561925578201,660,0.0329611835857419,660,0.305326112982884,660,0.0328796720759234
659,0.031825785362162,659,0.0326628293398564,659,0.300254936976734,659,0.0323657396923743
658,0.0318142260360092,658,0.0326702529061827,658,0.29533075873495,658,0.0323453255551865
657,0.0319307804145652,657,0.0327675524266518,657,0.290044127148722,657,0.0324451464247498
656,0.0317591354511409,656,0.0326701691810429,656,0.284953315658017,656,0.0324576988704618
655,0.0319527353614468,655,0.0327069539800231,655,0.279842146210688,655,0.0325039786882046
654,0.0323657396923743,654,0.0329149108719336,654,0.27530031923486,654,0.0324612415152302
653,0.0321468676093443,653,0.0328521140908198,653,0.270464068336323,653,0.0323117502908834
652,0.0319712084671659,652,0.0326658713122163,652,0.26567239489987,652,0.0322201565616017
651,0.0320369712992387,651,0.0324723996403569,651,0.260842716971968,651,0.0319451847405392
650,0.0319563853396534,650,0.0326247646248513,650,0.256162189787658,650,0.0319705954706612
649,0.03197210009999,649,0.0327385500883519,649,0.251572499523874,649,0.0323224583989159
648,0.0319996022989237,648,0.0326569129041773,648,0.24718742227078,648,0.0319909084064459
647,0.0319352103208121,647,0.0326447733003075,647,0.242431336701332,647,0.0319701775189951
646,0.0319409219018426,646,0.0325673947892886,646,0.238262803323699,646,0.0320056212495151
645,0.0319225058050591,645,0.0326265784835143,645,0.233797533711142,645,0.0322743297577112
644,0.0318995494647256,644,0.0326924406371221,644,0.229510299059069,644,0.0320483136080397
643,0.0318090174763417,643,0.0326016595189106,643,0.22530189289792,643,0.0321688056069267
642,0.0318969028772874,642,0.0326254064508968,642,0.221389671717774,642,0.0320181331313323
641,0.0318229442462534,641,0.0325565969371472,641,0.217079680997453,641,0.0319543235161332
640,0.0317364662288537,640,0.0326365967009069,640,0.213115285236221,640,0.0320177151339149
639,0.0319943079206037,639,0.0326426802994535,639,0.209175981705374,639,0.0319488625173504
638,0.0318767893398122,638,0.032690654413054,638,0.205241359678904,638,0.0318271780728273
637,0.0319674747745975,637,0.032575263160716,637,0.201471223530894,637,0.0318560360428377
636,0.031904313362758,636,0.0326592571426356,636,0.197687214459369,636,0.0318408547288379
635,0.0319255147357293,635,0.0326138258224425,635,0.194094918435855,635,0.0320271619737471
634,0.0318488492262096,634,0.0322686416728311,634,0.190147423998584,634,0.031702492460187
633,0.0314429871510873,633,0.0322162813320389,633,0.186378320118796,633,0.0317184208142478
632,0.0317147171413349,632,0.0324456206216604,632,0.182994944709371,632,0.0317300889827767
631,0.0319074893238113,631,0.0325943487389824,631,0.179838596139314,631,0.0317507527138664
630,0.0319787316765574,630,0.0324711722325599,630,0.176379530249593,630,0.03162622824465
629,0.0320017479337794,629,0.0326346990820997,629,0.173115633420059,629,0.0319073500267869
628,0.0318689336127653,628,0.0327266314983276,628,0.169895337093774,628,0.0317924730540963
627,0.0317112084277103,627,0.0322694502685902,627,0.166445597345293,627,0.0315993343113781
626,0.0314490540523864,626,0.0320565070080122,626,0.163191535041128,626,0.0313875540698081
625,0.0314771354472459,625,0.0322897214197446,625,0.160181681957204,625,0.0315516476114319
624,0.0317251320614261,624,0.032605035913016,624,0.15714741627152,624,0.0318665379228628
623,0.0316846990631637,623,0.0325266322111202,623,0.154357298489528,623,0.03181475525145
622,0.0317523958290213,622,0.0324338495337983,622,0.151409864342637,622,0.0316451607907312
621,0.0318476792905727,621,0.0325328258676647,621,0.148426990466422,621,0.0315379800598596
620,0.0318092124480381,620,0.0323506521022842,620,0.145502822071044,620,0.0318154237350337
619,0.0317810538710262,619,0.0325634885585545,619,0.142859264570093,619,0.0315231160419331
618,0.0317886016388775,618,0.032393768861968,618,0.14015927433141,618,0.0315392883404778
617,0.0318794915199043,617,0.0326775091462793,617,0.137256935549718,617,0.0317120159862713
616,0.0320154022221436,616,0.0326820583124771,616,0.13491199966122,616,0.0316406503151554
615,0.0320336550536146,615,0.0326708389826129,615,0.132792439792474,615,0.0319707905149098
614,0.0320418481770408,614,0.0328848655698539,614,0.130069880404653,614,0.0317514210989421
613,0.0321880684727589,613,0.0329432826935105,613,0.127484318867871,613,0.0319923573764396
612,0.0326828397691352,612,0.0330699173362952,612,0.125569465949984,612,0.0321947033479589
611,0.0325214429993178,611,0.0331819194938602,611,0.123268476489785,611,0.0323625324898002
610,0.0321734609535177,610,0.0328013025328402,610,0.120927596732694,610,0.031823167078202
609,0.031536783125725,609,0.0322673033107448,609,0.118170012411948,609,0.0313977107063692
608,0.0318322475773655,608,0.0325479476885162,608,0.116260042377003,608,0.0314793341663072
607,0.0324241985955183,607,0.0330727107530224,607,0.114333206836803,607,0.032003670654539
606,0.0325118180125541,606,0.0333842615077342,606,0.112247850414973,606,0.032406068800006
605,0.0323453813302103,605,0.0329163070796333,605,0.10994016337981,605,0.0319776728466147
604,0.0317884623799803,604,0.0324212698849884,604,0.107672535151339,604,0.0313443423233622
603,0.03181475525145,603,0.0323946334720798,603,0.105801342880254,603,0.0312733986836586
602,0.0319664716984822,602,0.0327630581935237,602,0.103828256369782,602,0.0314913299055729
601,0.032305225167014,601,0.0328556041138071,601,0.102285941874751,601,0.0315791231967694
600,0.032110185961997,600,0.0330442746102566,600,0.100553880797859,600,0.0318220807735326
599,0.0326246530030271,599,0.0333885944464001,599,0.0990799059047739,599,0.0322592174608726
598,0.0326623828135969,598,0.0334248250964779,598,0.0972798155633008,598,0.0322066352273182
597,0.0318942284474178,597,0.0326118445892318,597,0.0950311635746917,597,0.0314658915389742
596,0.031534389267352,596,0.0322686137902456,596,0.0930357395283481,596,0.0311817177186768
595,0.0318008287441328,595,0.0324566946614535,595,0.0915667229038206,595,0.0312728979462139
594,0.0316992623057866,594,0.032400630008932,594,0.0900742136407337,594,0.0311003726312373
593,0.0318930583895287,593,0.0325881821080866,593,0.0884253047131177,593,0.0311399447655081
592,0.0320604365505986,592,0.032939401006114,592,0.0872134283741472,592,0.0313062538854695
591,0.0319695923873381,591,0.032590414362553,591,0.0854069886113289,591,0.0312790459292569
590,0.0317308687283638,590,0.0323474728987746,590,0.0838755777346885,590,0.0309450110966443
589,0.0314621900190013,589,0.0322376931046479,589,0.0823594984821473,589,0.0308553726492873
588,0.0316760950059064,588,0.0323490903853712,588,0.0808710518471097,588,0.0307677533151656
587,0.0316686327253458,587,0.0323285654850054,587,0.0798052664160291,587,0.0307082111575121
586,0.0315615297139972,586,0.0324407671012812,586,0.0782129795545041,586,0.0306740121439179
585,0.0315064155051048,585,0.0320851572544587,585,0.0768894476876335,585,0.0305364376365264
584,0.0313421164644553,584,0.0320930168936718,584,0.0755894376842075,584,0.0306038723089694
583,0.0314543974484947,583,0.0322837821811741,583,0.0743460799499463,583,0.0304336115869894
582,0.0316064334798019,582,0.032248120574056,582,0.0733417399238562,582,0.0305373541001913
581,0.0317117932113459,581,0.0323005962924291,581,0.0722808591636017,581,0.0306882081581355
580,0.0317137146488353,580,0.0325463015607077,580,0.0711948102841341,580,0.0304230610066643
579,0.0320009398362907,579,0.0326251553014616,579,0.0702664940517811,579,0.0306369546771153
578,0.0320553365128379,578,0.0327272455628895,578,0.0693511813178687,578,0.0308356963596173
577,0.032134630757983,577,0.032753316195671,577,0.0682861780932228,577,0.0310201270750804
576,0.0318614680180411,576,0.0328051829861149,576,0.0674386339454137,576,0.0306651780679331
575,0.0318846730669047,575,0.032620104438098,575,0.0663155446950836,575,0.0302968348625082
574,0.032124345379689,574,0.0328819616731198,574,0.0654324676114727,574,0.0306930421318974
573,0.0323159331141601,573,0.0330614813268436,573,0.0648805118431025,573,0.0308561508259611
572,0.0322141903951982,572,0.0330381853836133,572,0.0637762719050001,572,0.0305715701276043
571,0.0320563397942227,571,0.0328950014385033,571,0.0625771149753888,571,0.0304555465085476
570,0.0323530504641923,570,0.0331590920660715,570,0.061972849345326,570,0.0305362432353916
569,0.0325141335695938,569,0.0331597626221203,569,0.0613095590466343,569,0.0307550273337794
568,0.032895308589731,568,0.0336816013811508,568,0.0606646338086836,568,0.0311007897466673
567,0.0329395127088636,567,0.033808339596198,567,0.0598192228781439,567,0.0310489592706305
566,0.0325377362167076,566,0.0332784673555489,566,0.0586710746552784,566,0.0304974480647035
565,0.0327247334860799,565,0.0334194574020381,565,0.0582187968803605,565,0.0303781683765799
564,0.0331719725112353,564,0.0338614799314051,564,0.0575119167144759,564,0.0303394706003949
563,0.0332628449869883,563,0.0340961978881578,563,0.0570406227166699,563,0.0307190742834765
562,0.0333626533686458,562,0.0340823100276476,562,0.0566079977864708,562,0.0308077119860252
561,0.0334155434999992,561,0.0342043199888097,561,0.0557846556694296,561,0.030655177444054
560,0.0336026115448831,560,0.0344096328283304,560,0.0556105885335194,560,0.0307139621903513
559,0.0337942930533338,559,0.0345396388360804,559,0.054989019015609,559,0.0308568734198352
558,0.0341232468912845,558,0.0347593558837868,558,0.0546026955300864,558,0.0310809911093805
557,0.0342374817065545,557,0.0349119083047077,557,0.054174309301401,557,0.0309947718947824
556,0.034345190731556,556,0.0352678478765982,556,0.0536061564016896,556,0.0308426996825734
555,0.0347867266701096,555,0.0354816416170145,555,0.0530946724767636,555,0.0310748459293929
554,0.0349284036684769,554,0.0357393842824525,554,0.0529978583631379,554,0.0311727898724461
553,0.03487013968373,553,0.0354065364343387,553,0.0519898763018217,553,0.0305670430146939
552,0.0346290878551166,552,0.0351080136417006,552,0.0515830058237147,552,0.030503585079998
551,0.0350548047568257,551,0.0358147438318282,551,0.0517672183445984,551,0.0309151851500854
550,0.035498411451375,550,0.0361163409933833,550,0.0513925775923984,550,0.0309437602003245
549,0.0359565035621877,549,0.0366148219069339,549,0.0513938596581844,549,0.0314488870723173
548,0.0360066731870369,548,0.0368612337425098,548,0.0510858064887195,548,0.0314181916603076
547,0.0358354903821725,547,0.0364089990042367,547,0.050181522680958,547,0.0309649147317228
546,0.0356958216900806,546,0.0365023533656653,546,0.0496504880323699,546,0.0307148512457027
545,0.0364142348757013,545,0.0371569603431001,545,0.0499622292047083,545,0.0311051833868642
544,0.0367574628668517,544,0.0375427702350319,544,0.0496666821466368,544,0.0312159289219968
543,0.0370470576694067,543,0.0377808987103682,543,0.0497347736857049,543,0.0313991576985796
542,0.0366696587704865,542,0.037501368685235,542,0.0490017692268989,542,0.0310167629802415
541,0.0358471291248448,541,0.0367044177176375,541,0.0479189718192436,541,0.0300551171923724
540,0.0361880521037119,540,0.0369806727867942,540,0.0478858182547552,540,0.0301243083468189
539,0.0372060561830518,539,0.0379269740369367,539,0.0483567089192549,539,0.0309556577600423
538,0.0380477237981832,538,0.0388179894653013,538,0.0488064734463882,538,0.0315174099529569
537,0.0376167214735769,537,0.0384909489454636,537,0.0481679211753703,537,0.0310150114370463
536,0.0375083110009844,536,0.0384003617094817,536,0.047713992119257,536,0.030713462097516
535,0.0388441169239774,535,0.0395456448571804,535,0.0483648107507539,535,0.0317115425896914
534,0.0385955026927027,534,0.0393511251932905,534,0.0480568738670658,534,0.0313828514883974
533,0.0377295354798306,533,0.0387706356834969,533,0.0470467806600428,533,0.0304043204762363
532,0.0383937444627844,532,0.0392256775990092,532,0.04730233106461,532,0.0307388286436361
531,0.0393081623257736,531,0.0400608822949938,531,0.0479194632163041,531,0.031402552583844
530,0.0399042406019435,530,0.0407306309194931,530,0.0482493449904102,530,0.0318375678353273
529,0.0390601603658038,529,0.0398114856300334,529,0.0471947368668079,529,0.0306974316489366
528,0.0383939424131458,528,0.0391996688316695,528,0.0464111830494036,528,0.0299634434082297
527,0.0393789002851361,527,0.0399965896404783,527,0.0469497766784704,527,0.030625482504166
526,0.0395060081641611,526,0.0403774601535258,526,0.0471625330576121,526,0.0305389926309573
525,0.0396610314745981,525,0.0403779714992588,525,0.0469253199807446,525,0.0302880917225116
524,0.0401545423573086,524,0.0409021901732158,524,0.0471262633469439,524,0.0305466854766902
523,0.0404159832179013,523,0.0413575929687822,523,0.0473064010035533,523,0.0308417269920761
522,0.0409093861660915,522,0.0417521984653487,522,0.0475320103165359,522,0.0309283883686235
521,0.0415245294627055,521,0.0419832944128181,521,0.0479320373890543,521,0.0311197828270075
520,0.0418770382879194,520,0.042760435396077,520,0.0481554847784682,520,0.0314194439238786
519,0.0417931237318531,519,0.042548253869624,519,0.0478560486839441,519,0.030949180777065
518,0.0415449524050793,518,0.0423104368037738,518,0.047281837625374,518,0.0304561296038575
517,0.0419121595183085,517,0.0427296726449096,517,0.0475823221022509,517,0.0304323899277255
516,0.0425893398832661,516,0.043231774883645,516,0.0478902405107116,516,0.0307712822013712
515,0.0429452005597272,515,0.0438072667165696,515,0.0483711187099257,515,0.0310187925550012
514,0.0434202022556333,514,0.0441409443952069,514,0.0487584234621413,514,0.031182941487603
513,0.0437522655949393,513,0.0446127813214227,513,0.0489963504024487,513,0.0310507109507456
512,0.0439628594036572,512,0.0447494938941495,512,0.0490268647714728,512,0.0308798858843457
511,0.0444188753533708,511,0.0451694834851904,511,0.0494173655183,511,0.0309068186867366
510,0.0448364786877493,510,0.0454652615365456,510,0.049579914283675,510,0.0309207165548905
509,0.0450128262985807,509,0.0456772342175904,509,0.0497263269684927,509,0.0307875376773764
508,0.0453078655270233,508,0.0461328669742503,508,0.0500343174518122,508,0.030805600031009
507,0.0460427728284447,507,0.046939682355657,507,0.0505296158454224,507,0.0308015706716387
506,0.0464291004474437,506,0.0472461351686613,506,0.0509779987271246,506,0.0310247145191291
505,0.046939941921019,505,0.0478362516039945,505,0.0515284684852396,505,0.0309560747365049
504,0.0474370634229691,504,0.0482158480167963,504,0.0517570989146401,504,0.0308258307589603
503,0.0479326733338997,503,0.0489141200709459,503,0.0523071853324132,503,0.0309525165502257
502,0.048654695330543,502,0.0495433260771364,502,0.0530357039699212,502,0.0310047803417488
501,0.0494752935549777,501,0.0503476714782994,501,0.0536916820126552,501,0.0310536026286163
500,0.050245800805882,500,0.0510771587542252,500,0.0545066305531488,500,0.0310873866379049
499,0.0507907743691665,499,0.0517473004982204,499,0.055130948141404,499,0.0311579661592989
498,0.0515918968461481,498,0.0525621111348069,498,0.0557645232900144,498,0.0310391722355593
497,0.0521958045020302,497,0.0530012801255111,497,0.0561135872548173,497,0.0307438298900126
496,0.0529266216391847,496,0.0537035163345958,496,0.0570944396089004,496,0.0305171368055655
495,0.0542984306377862,495,0.0550030335547446,495,0.0582804568507473,495,0.0308804417560594
494,0.0558649001267142,494,0.0567462681642821,494,0.059882893287796,494,0.0315741401601581
493,0.0575966189491939,493,0.058313584568894,493,0.0614080055432518,493,0.0318455344167573
492,0.057653253942856,492,0.0583141766869324,492,0.061538477060375,492,0.0309599665361281
491,0.0581997056735954,491,0.0588527757958864,491,0.0620816895165466,491,0.0301607393948667
490,0.0605182663987368,490,0.0614187101870813,490,0.0645126804025488,490,0.0311027919063078
489,0.0626434636125244,489,0.0633274840415456,489,0.0665380053494131,489,0.0315468319077275
488,0.063324908378406,488,0.0642353679474224,488,0.0672843745994503,488,0.0308018207687184
487,0.0645102478574632,487,0.0652050678181156,487,0.0682813311475423,487,0.0303160981476069
486,0.0676322082287448,486,0.0684241569706726,486,0.0713138569670678,486,0.031254176343856
485,0.0702017090943147,485,0.0709373991648566,485,0.0740495255028425,485,0.0316950297260413
484,0.070640756202254,484,0.0714847214232878,484,0.0745455243389833,484,0.030638538027447
483,0.071852918664551,483,0.0727591086198619,483,0.0757738277968819,483,0.0297626331150362
482,0.0752606324799827,482,0.0758809110602354,482,0.0790242294426445,482,0.0302963630060151
481,0.078271686126611,481,0.0790636361337926,481,0.0821488650970538,481,0.030592623211331
480,0.0814664242875197,480,0.0819674387782827,480,0.0854441109437536,480,0.0310988988265932
479,0.0848622730238606,479,0.085393407294413,479,0.0885955454956351,479,0.0311570483850616
478,0.0877222928984335,478,0.0884772839150034,478,0.0917176087760178,478,0.0311951237390271
477,0.0909847691129872,477,0.0915102500869337,477,0.0948105600542553,477,0.030985847890754
476,0.094245374499653,476,0.0948613124519602,476,0.0980909754747509,476,0.0311848605867268
475,0.0981191391415618,475,0.0987458961610358,475,0.101842427612045,475,0.0311988507974541
474,0.101815821336446,474,0.102369784055053,474,0.105701745642024,474,0.0313362736391013
473,0.10516594402083,473,0.105857161664344,473,0.109043329932566,473,0.0311813839641136
472,0.108834384894584,472,0.109577209896181,472,0.112797098016749,472,0.0312501984550398
471,0.112676086493253,471,0.113357694226824,471,0.116583695968227,471,0.0313294849312257
470,0.116378774214915,470,0.116985086516274,470,0.120337751806993,470,0.0314230337661278
469,0.120237598763197,469,0.12087780829571,469,0.124049997626089,469,0.0315048289875086
468,0.123754808990237,468,0.12432729197595,468,0.127818429926999,468,0.0313878045045657
467,0.127037525943673,467,0.127595047163832,467,0.130786675087746,467,0.0313723612979704
466,0.130241884322467,466,0.130717590105953,466,0.1340579006753,466,0.0314595182647904
465,0.133231193899765,465,0.133674371093303,465,0.137113047075155,465,0.0313718326213401
464,0.135980362348301,464,0.136673227924525,464,0.139940351419489,464,0.0313181892016669
463,0.139048361989739,463,0.139607389965288,463,0.142838906812807,463,0.0314297126213641
462,0.141703549565423,462,0.142286949593847,462,0.145756104899042,462,0.0319667781937161
461,0.14398917641884,461,0.144616717168017,461,0.147885391841825,461,0.0318423867639739
460,0.145053307571002,460,0.145518998507227,460,0.148734883064426,460,0.0312012984353135
459,0.146041274579342,459,0.146762441000546,459,0.149904954120718,459,0.0309276378591258
458,0.148094560005765,458,0.148456392653839,458,0.151817869706009,458,0.0310565499354896
457,0.14937184316485,457,0.150008385908603,457,0.153178501677193,457,0.0314193882676433
456,0.150519910802935,456,0.151244488593499,456,0.154139924759226,456,0.0315629772521274
455,0.151107145127372,455,0.151999002011939,455,0.154877894097998,455,0.0315802645707449
454,0.151779133652098,454,0.152326789336188,454,0.155421846795769,454,0.0318457851157475
453,0.15163596874637,453,0.152484560853637,453,0.15525134657609,453,0.0314956996655493
452,0.151544001016586,452,0.152415025488916,452,0.155123311830814,452,0.0314189708461052
451,0.151397538761801,451,0.15227433408755,451,0.155112434317617,451,0.0317273598842468
450,0.150970651308712,450,0.151997422470284,450,0.154724315036314,450,0.0318424703296822
449,0.15048260813805,449,0.151610681184278,449,0.154005869717945,449,0.0318365372043496
448,0.149653844265845,448,0.150857647538606,448,0.153301100847983,448,0.0318623594255896
447,0.148518919907628,447,0.149873625986753,447,0.152038786316052,447,0.0316749255355549
446,0.147364638072343,446,0.148727299753871,446,0.15079610143392,446,0.031374364709989
445,0.146495186555766,445,0.14781855351895,445,0.149744645144763,445,0.0312579039091013
444,0.145714538574422,444,0.147173439654377,444,0.14889051600504,444,0.0317091477678422
443,0.144727638840337,443,0.146515498794161,443,0.14809357707654,443,0.0318440859365367
442,0.143833018614388,442,0.145581140443267,442,0.147086080332268,442,0.0320136466467331
441,0.142390451029276,441,0.144608916514587,441,0.145885246578006,441,0.0316365296747119
440,0.141409311116316,440,0.143622865710859,440,0.144741510557156,440,0.031542294617257
439,0.140743573065133,439,0.143018346905097,439,0.143860885655695,439,0.0316026194023411
438,0.139890121212001,438,0.142470545951079,438,0.143155927077255,438,0.0316197690942232
437,0.139406764953967,437,0.142162213029354,437,0.142472091220426,437,0.0316959207920334
436,0.138904306571364,436,0.141888945036549,436,0.142086124438653,436,0.0320183560634528
435,0.138446505584087,435,0.141567145885574,435,0.141330630290405,435,0.0321773358010095
434,0.137798337720936,434,0.141117493003841,434,0.140762043066391,434,0.031877485776372
433,0.137063391233352,433,0.140801885104233,433,0.140263020715722,433,0.0318757029010088
432,0.136625146946616,432,0.140708174424836,432,0.13950744064131,432,0.0318390162938086
431,0.136224572734263,431,0.140542744616836,431,0.139150523777353,431,0.0319459091486601
430,0.135742587515818,430,0.140319337280049,430,0.138543860549709,430,0.0320207804576522
429,0.135092892608265,429,0.140290516589391,429,0.138108781140826,429,0.0319538777177402
428,0.135012557089968,428,0.140186406157923,428,0.137603699166872,428,0.0321246519863596
427,0.134205222926375,427,0.140166995469174,427,0.137175417745087,427,0.0321538363575999
426,0.13364852339223,426,0.140058947767555,426,0.136370222331374,426,0.0323719310547715
425,0.132711685335398,425,0.139607782668711,425,0.135291180738214,425,0.0321846674415749
424,0.131548702800789,424,0.139038735416302,424,0.134284950778432,424,0.0320152907568272
423,0.130802067669297,423,0.138661043050973,423,0.133333474149593,423,0.0321200250359815
422,0.129664696978205,422,0.138182539182451,422,0.132283986366373,422,0.0323034405348242
421,0.128023191265636,421,0.137246176879385,421,0.130504772506386,421,0.0319941407307606
420,0.126489517503995,420,0.13630715229164,420,0.128908890809293,420,0.031641847535587
419,0.124954544593984,419,0.135536383104484,419,0.127326382858442,419,0.0318166771445266
418,0.123153036610901,418,0.134395486748019,418,0.125510156825929,418,0.0320756255424342
417,0.12114802016003,417,0.133313769166617,417,0.123509871798824,417,0.0320298093551048
416,0.119060135250699,416,0.132107171753464,416,0.121375299285888,416,0.0321728476714721
415,0.11679464226766,415,0.130805810947733,415,0.119160800439397,415,0.0321070363905109
414,0.114473952956048,414,0.129300365282391,414,0.116580716564932,414,0.0322330928300888
413,0.112020706946271,413,0.128026910668696,413,0.114029165003384,413,0.0323282866207557
412,0.109858980780521,412,0.126974964437855,412,0.111802020210084,412,0.0325989249379653
411,0.107316177229891,411,0.125966347297449,411,0.109360715464711,411,0.0323474450111274
410,0.104838360650195,410,0.124779204804005,410,0.106693849312036,410,0.0320568971737713
409,0.102324109519938,409,0.123926843109345,409,0.104332060299242,409,0.0321091825562124
408,0.10021534505448,408,0.123640753892858,408,0.102331579631829,408,0.0324185085474353
407,0.0984295471411613,407,0.123311009278402,407,0.100335803395953,407,0.0324908390704489
406,0.0965327206943484,406,0.12324444403957,406,0.0984751061652795,406,0.0324756913420296
405,0.0945758107815178,405,0.123232858054426,405,0.0965053385878488,405,0.0322236972692022
404,0.0929510827469777,404,0.123632082250178,404,0.0946627163174926,404,0.0323828358761502
403,0.0913509704761195,403,0.124344284078586,403,0.0930944317555972,403,0.0319053998731363
402,0.0903409297960284,402,0.125770091740469,402,0.0919339593221671,402,0.0323312147043082
401,0.0890550906910098,401,0.127490637503057,401,0.0907241330006912,401,0.0325765745698136
400,0.0880049397732931,400,0.129395307613847,400,0.0898685612136253,400,0.0323626440442748
399,0.0870879819429483,399,0.131498382596251,399,0.0887426715374878,399,0.0324153567391598
398,0.0863717176740786,398,0.134009438736701,398,0.08808356471706,398,0.0323273105972919
397,0.0858894480519806,397,0.13698630992346,397,0.0873673989277709,397,0.0325274691865726
396,0.0853305480302709,396,0.140820643986895,396,0.0870606511347548,396,0.0328045129773177
395,0.0846863477583913,395,0.144072416216433,395,0.0861723562964323,395,0.0327067586048789
394,0.0838392171906972,394,0.147400147311886,394,0.085604990044143,394,0.0323452976676772
393,0.0838220427591384,393,0.15217124324986,393,0.0848919522942688,393,0.0324734875728952
392,0.0830065215170336,392,0.156465554689521,392,0.0845032924965793,392,0.0323161840848378
391,0.0819291744459642,391,0.160553843211771,391,0.0837891086834558,391,0.0320201952578132
390,0.0817423716204699,390,0.166436786986552,390,0.0836759462675435,390,0.0323820270692555
389,0.0813828063208442,389,0.172604000198123,389,0.0830250739948006,389,0.0326456942238788
388,0.0809816141272664,388,0.178523650903241,388,0.08227383129182,388,0.0326878355431417
387,0.0802059333518028,387,0.184265312273272,387,0.0818120890257819,387,0.0325295337329185
386,0.079183027005897,386,0.191224246535427,386,0.0812784469583225,386,0.0326596478502755
385,0.0790308125023999,385,0.199032920161274,385,0.0806768173377018,385,0.0329856763294819
384,0.0782833105971577,384,0.206558689756594,384,0.0798174608556028,384,0.0326041987880632
383,0.0774218971922913,383,0.214809706832928,383,0.0793639772947354,383,0.0325271901945759
382,0.0772999893085914,382,0.224486221521534,382,0.0788752057336461,382,0.032861327812221
381,0.0768192493075374,381,0.234148547132562,381,0.078711369723745,381,0.0328321796171275
380,0.0765828458002573,380,0.244962163460744,380,0.0786631524456235,380,0.0332027921333918
379,0.0766662240383852,379,0.25776583021931,379,0.0789742076589273,379,0.0333728563016431
378,0.0760752942564458,378,0.26901146542481,378,0.0786088290946398,378,0.0330908963351457
377,0.0752141511277264,377,0.27990590454539,377,0.0777360581493823,377,0.0327655984065337
376,0.0752720534940894,376,0.293663551794446,376,0.0781236021041555,376,0.0326214996983484
375,0.0757036246045994,375,0.308931032226848,375,0.0785379180285797,375,0.03286777753351
374,0.0757880362327953,374,0.32508715432491,374,0.0789072725596971,374,0.0333632683331614
373,0.0762857171393389,373,0.34270836170821,373,0.0796713678621591,373,0.0335637092962113
372,0.0763841921810166,372,0.360346986403911,372,0.0799092101055544,372,0.0333678526415369
371,0.0764496591160641,371,0.378012986730894,371,0.0801817097993569,371,0.0332723468973336
370,0.0768583946279376,370,0.397427406729261,370,0.080906821668361,370,0.033180662137972
369,0.0775255813923733,369,0.419962085550467,369,0.0816585443075053,369,0.0337490506041877
368,0.0777799925631663,368,0.442700973746787,368,0.0826058623435113,368,0.0339003249008127
367,0.0786217965872736,367,0.465389988268524,367,0.0830033563930404,367,0.0337043723656195
366,0.0791774667126942,366,0.490378637005883,366,0.0839530188832162,366,0.0338696796248388
365,0.080069421081773,365,0.517239057439709,365,0.0854429449139064,365,0.0340829260120484
364,0.0810482769781539,364,0.545864272984554,364,0.0868794066292873,364,0.034439223359532
363,0.0820762166783756,363,0.575998643669006,363,0.0877491901464185,363,0.0345147780278486
362,0.0824029017147587,362,0.602548345729566,362,0.0887267945116076,362,0.0337072537915035
361,0.0827261684827232,361,0.630912904986448,361,0.0897087685651695,361,0.0331196149034612
360,0.0847089676731201,360,0.665319375181763,360,0.091505072980525,360,0.0335255655430789
359,0.0866673918595079,359,0.703707769354402,359,0.0936333918212737,359,0.0342745115492382
358,0.087755906798068,358,0.738911016176571,358,0.0953480443409429,358,0.0340993059177564
357,0.0881396888065172,357,0.774237686409176,357,0.0964954465394082,357,0.0338539520215247
356,0.0898706943019853,356,0.815340597566207,356,0.098812482565229,356,0.0338413031879697
355,0.0910679579761957,355,0.857223783794738,355,0.100601458077731,355,0.0340622630122404
354,0.0918462228205832,354,0.899014680594751,354,0.101588899726855,354,0.0343718069602486
353,0.0925950636064152,353,0.941482232690634,353,0.102900734247328,353,0.03416354350984
352,0.0931005900884008,352,0.989907931244393,352,0.103913416244735,352,0.034594018056025
351,0.0937439431451372,351,1.03843967136446,351,0.105061151121861,351,0.0347413526799923
350,0.093958027637589,350,1.08595022701217,350,0.105929076081136,350,0.0346816558072822
