Sample 1,,Sample 2,,Sample 3,,Sample 4,,Sample 5,,Sample 0,
Wavelength (nm),Abs,Wavelength (nm),Abs,Wavelength (nm),Abs,Wavelength (nm),Abs,Wavelength (nm),Abs,Wavelength (nm),Abs
800,0.0565184758601641,800,0.0649294172563054,800,0.0620797185055154,800,0.0785812822133978,800,0.0849369943830491,800,0.0501402060523855
799,0.0560612465869635,799,0.065304100564967,799,0.0621080003841159,799,0.0794963511501574,799,0.0855120927441232,799,0.0501630139724423
798,0.0560983586214392,798,0.0657544849646188,798,0.062670376719949,798,0.0793997475139158,798,0.0861021879649393,798,0.0502527173735708
797,0.0560802145639158,797,0.065571619899191,797,0.0631633310311985,797,0.0803686522520673,797,0.0863951835451222,797,0.0501300663553586
796,0.0563195060546875,796,0.0658627106211942,796,0.0629466913535327,796,0.0804080253718415,796,0.0876412627316722,796,0.0499300808914736
795,0.0569481192992079,795,0.0660187259164757,795,0.0639231118486569,795,0.0808022336341587,795,0.0878876311914402,795,0.0501044712104608
794,0.0570296121831192,794,0.0664784803029456,794,0.0639102759914157,794,0.0812455803567479,794,0.0882799673283512,794,0.0497640627164368
793,0.0572709042402188,793,0.0674851371237159,793,0.0646609712565608,793,0.0826024809762574,793,0.0895595969476373,793,0.0502111905609764
792,0.0573653670826541,792,0.0672673589442351,792,0.0654763184961969,792,0.0825748987692497,792,0.0903731214147039,792,0.0506616008262223
791,0.0577655998971743,791,0.0674746447492692,791,0.0660053156796643,791,0.0841348368774847,791,0.0912310620511235,791,0.0511299504695917
790,0.0586729413657891,790,0.0686681966317065,790,0.0665583718482506,790,0.0850105322479833,790,0.0917301423335222,790,0.051007109716751
789,0.0583210157087853,789,0.0691864360264592,789,0.0665297081607372,789,0.0845516908433189,789,0.0922129595416945,789,0.0508331423482022
788,0.0583991836081773,788,0.0686456995974975,788,0.066917280629273,788,0.0853633786512681,788,0.0930273372465089,788,0.0508534839385619
787,0.0586589856766835,787,0.0690876067008115,787,0.0675316755229915,787,0.0860537112055127,787,0.0941782305766932,787,0.0510161054071968
786,0.0586038191687039,786,0.0696736872812947,786,0.0680924938475402,786,0.086239947041515,786,0.0942591389996842,786,0.0506454859221936
785,0.0588993469136389,785,0.0698962636796957,785,0.0685624222018322,785,0.0871076270237749,785,0.0955132801594399,785,0.0509543329305703
784,0.0590925918408017,784,0.070167418667157,784,0.0690754974057077,784,0.0882773345084102,784,0.0964099188110504,784,0.0514824187703419
783,0.0595349145802839,783,0.0711013160930921,783,0.0699922055129412,783,0.0886357351028007,783,0.0970758054479097,783,0.051097337069244
782,0.0597471555534049,782,0.0712007877662545,782,0.0701644978685913,782,0.0895475076362414,782,0.098026608236647,782,0.0511369684946962
781,0.0600962259851836,781,0.0716356262215474,781,0.0709422453651767,781,0.0899912467389677,781,0.0988083876454745,781,0.0511682160992256
780,0.0602772456647582,780,0.0716915268043689,780,0.0714544185901931,780,0.0905321383897355,780,0.0995099945237803,780,0.0515609976822634
779,0.0608661705943961,779,0.0724424090502591,779,0.0718042046788622,779,0.0913621836384369,779,0.100371092864998,779,0.0518643418677594
778,0.0610590415315068,778,0.0728367660150734,778,0.0726544446274272,778,0.092118286090947,778,0.101315612690355,778,0.0517912201256521
777,0.0610021394212561,777,0.0735038996135572,777,0.07296499079584,777,0.0927734533544574,777,0.101904024285703,777,0.0517377647516446
776,0.0613555893975078,776,0.0736122952824849,776,0.0735508421959008,776,0.0936404570141211,776,0.10287593294169,776,0.0523140472088585
775,0.0612710749785331,775,0.0738441412336701,775,0.0742330171386033,775,0.0942108043731363,775,0.10375639311266,775,0.0521284351548109
774,0.0621215297481482,774,0.0745259476345635,774,0.074955177941383,774,0.0954697400322098,774,0.104944022722483,774,0.0524153820063137
773,0.0619110510193818,773,0.0749942171256898,773,0.0754278833678261,773,0.095644797846994,773,0.105726015410587,773,0.052180741817163
772,0.0626736363095216,772,0.0756386397536933,772,0.0764643527215112,772,0.0970593295244718,772,0.106545709671281,772,0.0524382221047042
771,0.0625055750540147,771,0.0757127768796931,771,0.0765705874609383,771,0.097930561766863,771,0.108053121128369,771,0.0524183610814625
770,0.0629945115979568,770,0.0758927800017657,770,0.0773968075411981,770,0.0981070038814651,770,0.109029155350682,770,0.0520093384088522
769,0.0629094981455543,769,0.0768411850824574,769,0.0782062229187005,769,0.0993743074552745,769,0.110412323327455,769,0.052630424422897
768,0.0633623767973473,768,0.0772844942086058,768,0.0788320915358754,768,0.100315876875664,768,0.111361966096238,768,0.052671277280238
767,0.0633610289564436,767,0.07758301904558,767,0.0792830623178431,767,0.101146031021379,767,0.112424405973606,767,0.0528612438625655
766,0.0641367286053613,766,0.0784646616242949,766,0.0803753180197564,766,0.102246827613987,766,0.113290453007959,766,0.0533039056194686
765,0.0645655991381494,765,0.078961540114027,765,0.0810440342082519,765,0.103666794381431,765,0.114868608669959,765,0.0531151787792311
764,0.0634431650345812,764,0.0788726913972454,764,0.0806027318112814,764,0.103272398531926,764,0.114599814166315,764,0.0523926015190198
763,0.0632384827716966,763,0.0786388286431186,763,0.0810414760876054,763,0.103527042805236,763,0.115203342497021,763,0.0516770558255571
762,0.0641229262859211,762,0.0792496007373568,762,0.082194061484768,762,0.104771964235638,762,0.117221352069457,762,0.0520962720205703
761,0.0647863836730465,761,0.0799552320337223,761,0.0828305630969516,761,0.106010287289957,761,0.117792513193399,761,0.0520777107149203
760,0.0646628338497365,760,0.0802824737111561,760,0.0834171804139477,760,0.106894350100531,760,0.119136517424622,760,0.0521577984987973
759,0.0648432428226969,759,0.0808125541119354,759,0.0843919244557951,759,0.107981783563132,759,0.120216533026807,759,0.0521327548860365
758,0.0651260563648952,758,0.0813456861030169,758,0.0849499948203655,758,0.108731063944272,758,0.121544749409805,758,0.0526055580772209
757,0.0651453041193435,757,0.0820399751965056,757,0.085838660843136,757,0.10968239852657,757,0.122683514699729,757,0.0522262817646317
756,0.0655895326365135,756,0.0824584842138394,756,0.086495598947658,756,0.110712573422337,756,0.123774911122332,756,0.0524623486282618
755,0.0657254225508001,755,0.0826657294266508,755,0.0873903805100092,755,0.111837215678469,755,0.125217497130785,755,0.0525999772246458
754,0.0660543177887897,754,0.0838611336308232,754,0.0880687580450134,754,0.112940838812489,754,0.126327649241767,754,0.0527049150996801
753,0.0664520541594627,753,0.0843870201393357,753,0.0889922711490868,753,0.113645863949695,753,0.127170204188665,753,0.052706347175878
752,0.0663739917935465,752,0.0842139583822331,752,0.0896474454460351,752,0.114537502411146,752,0.129045068844503,752,0.0526346614862782
751,0.0668574620268843,751,0.0849746117266117,751,0.0906661110619579,751,0.11572974910423,751,0.129893406175623,751,0.0525160977610182
750,0.06709551703914,750,0.0855622428394136,750,0.0914037163912678,750,0.116593954751836,750,0.131247639424921,750,0.0524396240936063
749,0.0673867848422379,749,0.0860986530183317,749,0.0916828556246821,749,0.117337599858939,749,0.132567116842367,749,0.0522516227263439
748,0.0674558074911789,748,0.0866105729250719,748,0.0929159422028581,748,0.11861120612034,748,0.13360662098736,748,0.0525460716338727
747,0.0679089445614901,747,0.0869250664124726,747,0.0933556281595907,747,0.120152147175325,747,0.134702094403417,747,0.0522528197438264
746,0.067649449929374,746,0.0872915936525485,746,0.0947814831486081,746,0.120613300370844,746,0.135885491641637,746,0.0523277420863852
745,0.0680436548369836,745,0.0883289787581129,745,0.0955206985422552,745,0.122206165318979,745,0.138317136305109,745,0.0524370829920538
744,0.068440975575434,744,0.0885911013756633,744,0.0959156361603182,744,0.123703903813979,744,0.139251068732919,744,0.052453615022466
743,0.0690163518415336,743,0.0891583480100848,743,0.0972691610209111,743,0.124909055045597,743,0.141261245272347,743,0.0523038858304247
742,0.0690713700038297,742,0.0898661734405757,742,0.0978199773167507,742,0.125705637990821,742,0.142206529375519,742,0.0525656755487954
741,0.0697414026342326,741,0.0907609469800134,741,0.0986411464174034,741,0.12656565869942,741,0.143074338179214,741,0.0523745532120982
740,0.0695719517439662,740,0.0911345269277093,740,0.0994440171279808,740,0.128016760597176,740,0.144958169128409,740,0.052335421918847
739,0.0696681866323711,739,0.0915305436608407,739,0.100144696489154,739,0.129067020183127,739,0.146784181251293,739,0.052116847979876
738,0.06988273317723,738,0.0918883456440897,738,0.101278023837342,738,0.129990852705974,738,0.148090773920228,738,0.0520525841734654
737,0.0700455528669153,737,0.0924894165731975,737,0.102062474570466,737,0.131396358406242,737,0.149162095563897,737,0.0520276925292509
736,0.0701764854378359,736,0.0928172047988919,736,0.102431226175053,736,0.132093171448927,736,0.150390994091683,736,0.0513888188304308
735,0.0700485945326761,735,0.0933639405123168,735,0.103251089149868,735,0.13365063622559,735,0.151800392158192,735,0.0511680996081743
734,0.0700699780442793,734,0.093749114886769,734,0.103673728913043,734,0.134445473480114,734,0.152963152804776,734,0.0508232774564642
733,0.0695381059555674,733,0.0934724971132108,733,0.104290885338125,733,0.135207203798649,733,0.154360290121932,733,0.0506516525657418
732,0.0699139603887973,732,0.0941246643740867,732,0.104720040416251,732,0.135964006292814,732,0.155751339476952,732,0.0498582131883402
731,0.0693286792436091,731,0.0941584559690886,731,0.105225935981253,731,0.137003946566796,731,0.156512357125474,731,0.0492837572954755
730,0.0690932517507575,730,0.0940237875084852,730,0.105997533019262,730,0.138097574430485,730,0.158039447700981,730,0.0485284132788029
729,0.0690810209019451,729,0.0945342953861172,729,0.10655778527986,729,0.138752994682181,729,0.159523448046848,729,0.0480707532278877
728,0.0688635332099363,728,0.0948367083915709,728,0.107069239052205,728,0.139856042288181,728,0.160751625105856,728,0.0475780762786254
727,0.0689352484205011,727,0.0950091271739093,727,0.107853710752781,727,0.140924011371019,727,0.161781823450936,727,0.047232743896537
726,0.0688442412914505,726,0.0958834830261097,726,0.108807712633579,726,0.142175033419884,726,0.163670230774189,726,0.0468294676178316
725,0.069233825016027,725,0.0962656329908747,725,0.110079626165825,725,0.143536397735907,725,0.165803934244293,725,0.0467781762613134
724,0.0693328394582864,724,0.0969121421341699,724,0.11093111315285,724,0.14500750694254,724,0.167083608011868,724,0.0467776573240739
723,0.0695465215829528,723,0.0973137240077308,723,0.111825695629808,723,0.146330402370177,723,0.168984297897057,723,0.0464351787037625
722,0.0697105525442497,722,0.0981380565468337,722,0.113157849292997,722,0.147917304674629,722,0.171278871873321,722,0.0461867596904719
721,0.0701494073889259,721,0.0985252168691136,721,0.113885029959307,721,0.149001586258337,721,0.172804727523892,721,0.0459688980623249
720,0.0702091030372595,720,0.099843419903863,720,0.115005885129437,720,0.15097512223112,720,0.174810112553634,720,0.045708120196734
719,0.070351833845333,719,0.100134427811257,719,0.115968476757609,719,0.152465953261024,719,0.176720381137758,719,0.045717179350243
718,0.0703928966614358,718,0.100685497900152,718,0.117366293570284,718,0.15357497415566,718,0.178235657385616,718,0.0452876958330848
717,0.0710253706910132,717,0.10147044768983,717,0.118251540158594,717,0.155650679908883,717,0.180413102151183,717,0.0450497239580174
716,0.070752826620676,716,0.101629623032888,716,0.118865477648595,716,0.15668613812917,716,0.182042574438583,716,0.0446456285783036
715,0.0707960906752963,715,0.102442892967529,715,0.120227492544965,715,0.158067384657693,715,0.184140180859223,715,0.0445835221018033
714,0.0711216842802988,714,0.102927341455492,714,0.121195923348638,714,0.159609644672338,714,0.18655150799475,714,0.0441373624941774
713,0.0717049305804572,713,0.104526665630658,713,0.123018040445863,713,0.161591645977226,713,0.188452038138399,713,0.0442120727396944
712,0.0720577298829916,712,0.105083868392239,712,0.123606205996505,712,0.163726307350903,712,0.190387044602786,712,0.0438990748384998
711,0.0721153962880625,711,0.105587184231068,711,0.124824439213875,711,0.16496788297303,711,0.192594811162571,711,0.0436907733693848
710,0.0724545208328408,710,0.106689877967876,710,0.126613816756054,710,0.166696007773341,710,0.195187184841797,710,0.0437574476001676
709,0.0728762581523159,709,0.107583451416569,709,0.127798105020851,709,0.169186033940944,709,0.197516586443167,709,0.0438862159508526
708,0.0733893393164154,708,0.108251693125027,708,0.129020923653451,708,0.170657296417574,708,0.199751436436531,708,0.043248131761005
707,0.0736376886175976,707,0.108767142010911,707,0.130263022728879,707,0.172632427719257,707,0.202069773611828,707,0.0429786649751668
706,0.073863380376418,706,0.110333922516581,706,0.131734405373344,706,0.174500196819656,706,0.204177763980848,706,0.0432237682451869
705,0.0746079175265845,705,0.11114571717344,705,0.13346900531475,705,0.17659270077638,705,0.206844549794279,705,0.0430416285037849
704,0.0753771963446757,704,0.112444627607541,704,0.135431284474893,704,0.179065532156892,704,0.209412921412334,704,0.0429554882353101
703,0.0750337828739832,703,0.113347780449299,703,0.136763482776155,703,0.180949612118338,703,0.21270523607281,703,0.0428883655444287
702,0.0758050191597587,702,0.114785488124079,702,0.138599669669972,702,0.18337001063335,702,0.214722821089539,702,0.0431979192485808
701,0.0764321879548942,701,0.115597547139436,701,0.140144011189816,701,0.185405378448796,701,0.217943925107186,701,0.0431172939882982
700,0.0770514230677974,700,0.116840306039504,700,0.141648129282537,700,0.187452482501697,700,0.220391212307303,700,0.0430818178979152
699,0.076704737836508,699,0.116999489273269,699,0.142348666675607,699,0.189010618126722,699,0.222397300311989,699,0.0424282158977787
698,0.0770109003776673,698,0.117783210625682,698,0.143384688046732,698,0.190334118515074,698,0.224446723778486,698,0.0418917478082218
697,0.0776133501815257,697,0.119055436295682,697,0.145785363025322,697,0.193227328096733,697,0.227800388664722,697,0.0421955423583304
696,0.0784445973560459,696,0.120639648226021,696,0.148040939005472,696,0.196346316610499,696,0.230849455818348,696,0.0424565310213247
695,0.0790645988321409,695,0.121921618284374,695,0.150012517841983,695,0.19835008436183,695,0.23402522533487,695,0.0423584920676937
694,0.0797003834874898,694,0.123180639007927,694,0.151517618020369,694,0.201243184196661,694,0.237339412147112,694,0.0423006780113845
693,0.0802152432770095,693,0.124347317221602,693,0.152935689508386,693,0.203336407250013,693,0.240415637703069,693,0.0422353967597608
692,0.0808188213495465,692,0.125603617301988,692,0.154990987257161,692,0.205970604279773,692,0.242802304452925,692,0.0422642414174886
691,0.0812209554447907,691,0.126936266820546,691,0.156840301204802,691,0.20836755456593,691,0.246412260291824,691,0.0422502610770669
690,0.0819618114591459,690,0.128228814286062,690,0.158456752098905,690,0.210556768119627,690,0.249187912528497,690,0.0422366235459582
689,0.0824738833266975,689,0.129063849365656,689,0.160545638595554,689,0.213414084678369,689,0.252087281701644,689,0.0422291772923575
688,0.083125496767269,688,0.130499283849329,688,0.162523156965321,688,0.21591884557328,688,0.255792140148509,688,0.0421157019158159
687,0.0838236753998357,687,0.132055734255138,687,0.164296994351245,687,0.218633888526812,687,0.258311846285547,687,0.0421865563665188
686,0.084256101651506,686,0.133163090795197,686,0.166151610190512,686,0.221360840313949,686,0.26178293859491,686,0.0421821347562611
685,0.0850020634262104,685,0.134760271602087,685,0.168576717966428,685,0.223871332327968,685,0.264980423538376,685,0.0422780510118903
684,0.0858882492792348,684,0.136331741431242,684,0.170723065036173,684,0.226852995123238,684,0.268696190343733,684,0.0422567376278008
683,0.0864036479928073,683,0.137494262183962,683,0.172707357405326,683,0.22952588779362,683,0.272026669284376,683,0.042235739118351
682,0.087072007129766,682,0.139125703206345,682,0.174808215543462,682,0.232550697696089,682,0.275684056861837,682,0.04234502236
681,0.0876907723308861,681,0.140512585428112,681,0.177195818928978,681,0.235205472870766,681,0.279012612926999,681,0.0422890932969028
680,0.0878937478243051,680,0.14151471916163,680,0.178382713976263,680,0.237552820278052,680,0.28216319176032,680,0.0419162362736671
679,0.0886752616851664,679,0.143030868748467,679,0.180756938505401,679,0.240456614870458,679,0.285514447065711,679,0.0418878993390904
678,0.0893023263199728,678,0.144268749320027,678,0.183002322131861,678,0.243810091062652,678,0.289059948533194,678,0.0419637917433615
677,0.0904196600519112,677,0.146024752592514,677,0.185323188549317,677,0.246481157300036,677,0.293285418787789,677,0.0418369317201472
676,0.0910203921703718,676,0.147561738294174,676,0.187582678661506,676,0.249778450544083,676,0.297075900656506,676,0.0419872577816679
675,0.0918305517422075,675,0.149096045679712,675,0.189968587039522,675,0.252701370866442,675,0.300622844977826,675,0.0421094556406964
674,0.0924254578306092,674,0.150835848962345,674,0.192207062676703,674,0.255864081219561,674,0.304194798253465,674,0.0422278364096804
673,0.093327258238783,673,0.152306203479798,673,0.194734246170104,673,0.25915839244678,673,0.308055852324311,673,0.0419500491601901
672,0.0941389716266692,672,0.154152808328853,672,0.19686468049256,672,0.262580650464218,672,0.312036387615165,672,0.042160797553739
671,0.0948696214678268,671,0.155783539162537,671,0.199535527205293,671,0.265713248562824,671,0.316331692623637,671,0.0420914018437287
670,0.0957050376649444,670,0.157663070024229,670,0.201912826744022,670,0.269028923293988,670,0.320105039685261,670,0.0422743703126095
669,0.0962393015580844,669,0.158860985636147,669,0.204182941894232,669,0.272004780654628,669,0.323892849939035,669,0.042011808663727
668,0.0970997597718125,668,0.160562122913123,668,0.206612714174118,668,0.275153133252873,668,0.327953835564047,668,0.0419529002827733
667,0.098097724205477,667,0.162254754519396,667,0.209087660122843,667,0.278594752287647,667,0.332163516317134,667,0.0422317164219607
666,0.098899850052488,666,0.163941661897108,666,0.211582816426157,666,0.28206559744419,666,0.336389239911921,666,0.0421663314333871
665,0.0995679079573813,665,0.1658913865729,665,0.214266097369217,665,0.285604974939213,665,0.340623334098456,665,0.0423247615102477
664,0.100574275084106,664,0.167638429330844,664,0.216926003257953,664,0.289116914497249,664,0.344807370224928,664,0.0422682358831281
663,0.101424507983224,663,0.169659985476445,663,0.219706868002103,663,0.292650375557975,663,0.34950133062044,663,0.0425018904445005
662,0.102189178174944,662,0.171232178686529,662,0.22239967619796,662,0.296104800800061,662,0.353688560806375,662,0.0424230782708147
661,0.103326809509349,661,0.173370113484858,661,0.225319810194517,661,0.299925604269149,661,0.358452440312385,661,0.0426083852400031
660,0.103924695426391,660,0.175167556448392,660,0.227589313779818,660,0.303409234733456,660,0.362486815332034,660,0.042408978651314
659,0.104098589733899,659,0.17594760275051,659,0.229521408719643,659,0.305931935909418,659,0.365985385827348,659,0.0419432920744142
658,0.105033258972422,658,0.177905000997689,658,0.232097506138712,658,0.309550567085081,658,0.370246364172611,658,0.0418049802398338
657,0.106152228609913,657,0.179957401167853,657,0.235254771438015,657,0.313475010768044,657,0.374923202999181,657,0.0419623376320389
656,0.106901468802066,656,0.182024860683051,656,0.238100415286288,656,0.317295420525615,656,0.37971101952654,656,0.0419217955471934
655,0.108064408741013,655,0.18375840281369,655,0.240896439684151,655,0.321425404399669,655,0.384405176862942,655,0.0420308001935106
654,0.108989894839709,654,0.185732110143084,654,0.243568050639037,654,0.32518530697414,654,0.3892673640226,654,0.0420770563126895
653,0.109885584330281,653,0.187653453818031,653,0.246427234987553,653,0.328852012058128,653,0.393526458843938,653,0.0421165575769381
652,0.110567464467831,652,0.189238966054603,652,0.249313502439599,652,0.332560237463759,652,0.398128590059731,652,0.042107573219236
651,0.111273594030294,651,0.191143440403981,651,0.252008795322209,651,0.336317300511342,651,0.402511953564722,651,0.0418837088225983
650,0.112164894761158,650,0.193064983954839,650,0.254816794010047,650,0.340138957651453,650,0.407512123696519,650,0.0418681729068105
649,0.113405989321863,649,0.195383649714684,649,0.258035423089645,649,0.344057390124893,649,0.412557850094153,649,0.0419029228155779
648,0.114213450226509,648,0.197396999112301,648,0.26088826370368,648,0.348075766655691,648,0.417263751567083,648,0.0419320875183113
647,0.115187851738,647,0.199045364652372,647,0.263754931863246,647,0.351892006475317,647,0.421959610042962,647,0.0419868871053502
646,0.116007527959228,646,0.201378034356101,646,0.266965060007394,646,0.355972537830753,646,0.426913457924903,646,0.0420726072979402
645,0.117247935750767,645,0.203256292120859,645,0.269755321070299,645,0.360064341067396,645,0.432110448346911,645,0.0420845284784754
644,0.118239542827007,644,0.205372555800708,644,0.272877354199417,644,0.364230811117078,644,0.437121822168376,644,0.0419720888246429
643,0.119279476384432,643,0.207555160675862,643,0.276011094463173,643,0.368438305446552,643,0.442194564804106,643,0.0420382715634817
642,0.120011733101086,642,0.209511457307433,642,0.278888565474798,642,0.372171622178791,642,0.447000440276853,642,0.0419621380485118
641,0.121119554482257,641,0.211698493532931,641,0.282054545737508,641,0.376522031540552,641,0.452182049452046,641,0.0418260434405155
640,0.122116759268961,640,0.213778387034649,640,0.285291505230067,640,0.381020922165614,640,0.457609800222096,640,0.0420980471509061
639,0.123023504088833,639,0.216027850804604,639,0.288490699484896,639,0.384998341115307,639,0.46258743130573,639,0.0419641909120273
638,0.124020342297759,638,0.217870773853451,638,0.291443023604972,638,0.389305522100471,638,0.467735389037924,638,0.0419040061223959
637,0.125088003492884,637,0.220096384116046,637,0.294683893163057,637,0.393316230876819,637,0.472969868653391,637,0.0418887260443981
636,0.126268548077714,636,0.222480464055579,636,0.298097203690173,636,0.398097028980548,636,0.478436815771783,636,0.0421016978350329
635,0.127247054702357,635,0.224570958469571,635,0.301281084468726,635,0.402262034781572,635,0.483810260984498,635,0.0419670421274523
634,0.127998650956037,634,0.226616731024413,634,0.304251333170994,634,0.406175295660086,634,0.488767637094939,634,0.041871166021676
633,0.128865945581571,633,0.228650448561495,633,0.307413330413139,633,0.410518696256444,633,0.493970314671738,633,0.0416440899545375
632,0.130351745377763,632,0.231224323261666,632,0.310938802243028,632,0.415258935606025,632,0.499668111206594,632,0.0417459289183857
631,0.131260877062094,631,0.233393500942038,631,0.314406811413334,631,0.419518253507145,631,0.505767455724551,631,0.041807146367608
630,0.132437766204666,630,0.235733810530222,630,0.317616359066769,630,0.424354759362748,630,0.510903460275101,630,0.0419506193832093
629,0.133615705367193,629,0.238150805076208,629,0.321279601759115,629,0.428928205698718,629,0.516847862366724,629,0.042110910244686
628,0.134807864086374,628,0.240637410860258,628,0.324771065870065,628,0.433599922613785,628,0.522234602199451,628,0.0420198500209077
627,0.135429339753387,627,0.242414554023014,627,0.327507588965641,627,0.437327085942561,627,0.526933653010449,627,0.0417190278896745
626,0.13642380362803,626,0.244218939772744,626,0.330569550424728,626,0.441833849696846,626,0.531822590850289,626,0.041622351824911
625,0.137693969899203,625,0.246689467144987,625,0.33424832417495,625,0.446285613987387,625,0.537928836321255,625,0.0416960607452473
624,0.139074140864939,624,0.249359005003003,624,0.337899570471974,624,0.451626388778722,624,0.544154376163361,624,0.0419840642730015
623,0.139794928400751,623,0.251620780644941,623,0.341334794028863,623,0.455783513898981,623,0.549836673766949,623,0.0419162932914959
622,0.140964477075252,622,0.254145098169695,622,0.344919791445089,622,0.46050736207378,622,0.555732488045061,622,0.0419636776952387
621,0.142415315166436,621,0.256244279081527,621,0.34828750219393,621,0.465585427914477,621,0.561142352197097,621,0.0420192797069824
620,0.143350405828865,620,0.258597178668498,620,0.351849693878843,620,0.469849955602478,620,0.567046664727192,620,0.0419546394767404
619,0.144142792979664,619,0.260726724177038,619,0.354944328272854,619,0.474637210260029,619,0.572638163420082,619,0.0421559768603801
618,0.145170271106773,618,0.263244316755284,618,0.358927254696573,618,0.479171388180361,618,0.578441035070161,618,0.0418607329677959
617,0.146525981731706,617,0.265719835143924,617,0.36227576423325,617,0.484144256955344,617,0.583772910356789,617,0.0419399278261839
616,0.14797818936517,616,0.268093295946477,616,0.365970355020484,616,0.488921139035042,616,0.590531562966818,616,0.042046484515416
615,0.148891828984973,615,0.270632988302307,615,0.369420577980692,615,0.49374872710955,615,0.595823138362614,615,0.0420319693688779
614,0.150300204350495,614,0.273072409294744,614,0.373279518112319,614,0.498765203681416,614,0.602031155316591,614,0.0421971113600939
613,0.151313396671658,613,0.275755169272785,613,0.377077779906584,613,0.503739105739516,613,0.608022145261269,613,0.0422363667764674
612,0.153037378659682,612,0.278283548794743,612,0.38071420728836,612,0.508836876890936,612,0.613434580738587,612,0.0424620972153503
611,0.154314900779243,611,0.281118798050959,611,0.384643016924065,611,0.513999001672849,611,0.620402510170752,611,0.0429116529996774
610,0.15490522163,610,0.282995691258598,610,0.387559587595027,610,0.517746134486557,610,0.625135449404095,610,0.0421652474720265
609,0.155562302483575,609,0.284595498867652,609,0.390195749651551,609,0.5214054277241,609,0.62987612926849,609,0.0416518680817427
608,0.156846615964017,608,0.287224321009431,608,0.394170841589206,608,0.526961568166484,608,0.636545453929098,608,0.0419443469711754
607,0.15876620672233,607,0.290453500730359,607,0.398630800644049,607,0.532333987441148,607,0.643814355657841,607,0.0423434813607511
606,0.159840807840099,606,0.293192106412269,606,0.402710945314427,606,0.53764548734909,606,0.650058808010793,606,0.0425558197997503
605,0.160468844908859,605,0.295030974091196,605,0.405461240780778,605,0.54170191675401,605,0.655121142034532,605,0.0421790539189505
604,0.161208351398974,604,0.29679874925869,604,0.408194209613779,604,0.545580610289978,604,0.660036998660895,604,0.0417623154251729
603,0.162367264703878,603,0.299235461895141,603,0.412095274046231,603,0.550528111803186,603,0.665388134262532,603,0.0416997650412294
602,0.163538105858328,602,0.301760075565676,602,0.415748088582921,602,0.555603097304173,602,0.672328220008862,602,0.0419039205980751
601,0.165110627741716,601,0.304407572617821,601,0.419587936929639,601,0.560632140328906,601,0.677767621955164,601,0.0421262551874802
600,0.166371512353163,600,0.307200942892481,600,0.423451023381322,600,0.565849112973862,600,0.684560949622134,600,0.0422413024832685
599,0.16785828571984,599,0.310071543933121,599,0.427542270989192,599,0.570872184548994,599,0.690588975015608,599,0.0427374131134364
598,0.169070788391589,598,0.312401369765226,598,0.431291411139042,598,0.57605052374829,598,0.696729628648688,598,0.0426195501477885
597,0.169297105174126,597,0.313940367850073,597,0.43366157392084,597,0.579537144127486,597,0.700829316679887,597,0.0418432310851084
596,0.170170841339202,596,0.31578478452401,596,0.436679391706666,596,0.583761593221217,596,0.706820753199205,596,0.0414551783817995
595,0.171528396870871,595,0.318629011335285,595,0.440544574779929,595,0.588902815316683,595,0.712643951356277,595,0.0418530366132803
594,0.172291689650152,594,0.320811573880512,594,0.443930374303717,594,0.593332193088232,594,0.718088246589489,594,0.0415858296584845
593,0.173547415702559,593,0.323179545857208,593,0.447291333471666,593,0.597924168841682,593,0.723770728307254,593,0.0415757737821816
592,0.174837523339753,592,0.325808862919546,592,0.4511155052878,592,0.602875258060529,592,0.730413916823226,592,0.0418013605504277
591,0.175981335260737,591,0.327983939513015,591,0.45464976569888,591,0.607694641292669,591,0.736198756178441,591,0.04183670369055
590,0.176615442551098,590,0.329956031826126,590,0.457770498720551,590,0.612048652603829,590,0.740858773141079,590,0.0414137439040111
589,0.177425398105446,589,0.331993214659403,589,0.460777306330478,589,0.616581959097232,589,0.746587370509901,589,0.0411219634966442
588,0.17845235686874,588,0.334451018636711,588,0.464208941563388,588,0.620710747156428,588,0.751814795659294,588,0.0413048940048109
587,0.179635218470966,587,0.336845610943431,587,0.467713578278085,587,0.625307027496885,587,0.757789396367782,587,0.0411412291916344
586,0.180782843185989,586,0.339060794391173,586,0.470650270956453,586,0.63011149517777,586,0.76354244403675,586,0.0411685782706947
585,0.181750743865839,585,0.34132400089872,585,0.474328382910497,585,0.634397787320688,585,0.769121199128376,585,0.0411621179270404
584,0.18295845395452,584,0.343568770893942,584,0.477983712034618,584,0.639356921887492,584,0.774977413387195,584,0.0410437142891892
583,0.183882949877463,583,0.345705547530382,583,0.4811161095747,583,0.643965451366387,583,0.779747552444598,583,0.0411749817898574
582,0.185025578665338,582,0.347951826063105,582,0.484288830183998,582,0.64747604791001,582,0.786017979178053,582,0.0409161271845764
581,0.1860158632513,581,0.350116736263831,581,0.487748911330185,581,0.652719410498607,581,0.79012620429319,581,0.041031906996672
580,0.187166355559741,580,0.352577147736069,580,0.490981584995668,580,0.657206810205044,580,0.796478526478808,580,0.0410441695165323
579,0.188373303885647,579,0.354958249557651,579,0.49415845622209,579,0.661913321132163,579,0.802377884726126,579,0.0414159080812923
578,0.189310852276044,578,0.35717831326982,578,0.49756683088135,578,0.66569169074299,578,0.807778689713428,578,0.0413184738393472
577,0.190357591381984,577,0.359169680498711,577,0.501191820156719,577,0.669848186239788,577,0.813075319750446,577,0.0413369225967246
576,0.191394672132538,576,0.361342960594905,576,0.504294885604695,576,0.674622003738696,576,0.818038805546521,576,0.0412796144375534
575,0.192102383985413,575,0.363267751946402,575,0.506712363130681,575,0.677737731754194,575,0.822949543729789,575,0.0409671290819243
574,0.193291151615119,574,0.365432264259286,574,0.509837600765645,574,0.682424999254972,574,0.828295218933971,574,0.0410916011302321
573,0.194482939067068,573,0.367659884117457,573,0.513418429455353,573,0.687405788589456,573,0.833170634805654,573,0.0412763691942791
572,0.19517582417163,572,0.369501397901899,572,0.516227398356333,572,0.690920583822499,572,0.837966804252921,572,0.0410509979839394
571,0.196070696818629,571,0.37111366214179,571,0.519234988621295,571,0.69471000283157,571,0.842388914280751,571,0.040919625729084
570,0.196991618013407,570,0.373514675079682,570,0.521878223857837,570,0.698687932431738,570,0.847321203175522,570,0.0411025563784905
569,0.198162568160768,569,0.375957519127842,569,0.524825828131675,569,0.702876199384877,569,0.853068946011805,569,0.041019616372924
568,0.199592906693158,568,0.378199608322819,568,0.528496874434368,568,0.70723823648824,568,0.858359285456973,568,0.0414079348498969
567,0.199974221977431,567,0.379700160070944,567,0.530623602145663,567,0.711049220765869,567,0.862791056418554,567,0.0412371719869516
566,0.200630733684784,566,0.381443565954939,566,0.533411232580808,566,0.713872057527393,566,0.866297693594959,566,0.0409679540363463
565,0.201272027170691,565,0.382787459794162,565,0.536115004247683,565,0.717066787281514,565,0.870245439327478,565,0.0408021128149652
564,0.202341638543056,564,0.384726186578061,564,0.539012275415179,564,0.721646186056811,564,0.875641538636697,564,0.041013670339518
563,0.203428942493404,563,0.386718663875914,563,0.542075667864775,563,0.724597809079577,563,0.880568909390814,563,0.041253909359466
562,0.204207713886009,562,0.388986245835132,562,0.544128233397243,562,0.729028124484185,562,0.884841773692474,562,0.04144048364039
561,0.204726012703391,561,0.390170798686346,561,0.546563260913838,561,0.731534601981514,561,0.889009666238894,561,0.0411120321797427
560,0.205787336367316,560,0.392191312689432,560,0.549369416747184,560,0.735172117313218,560,0.893126101166164,560,0.04123572030647
559,0.206612755830078,559,0.394038925426084,559,0.55154811842935,559,0.738659681623019,559,0.897179975107551,559,0.0412937913109491
558,0.207497596133068,558,0.395551740665272,558,0.554447364265583,558,0.742419130050999,558,0.90148982051993,558,0.0413574790797394
557,0.208245987421131,557,0.397109630469786,557,0.556507591940857,557,0.745049697672775,557,0.905459856020873,557,0.0412775363403836
556,0.20892271278487,556,0.398805714661733,556,0.558878453242137,556,0.748295591346839,556,0.908385719037895,556,0.0413431862419416
555,0.209852648042227,555,0.400344723561257,555,0.561467486295773,555,0.751388314305726,555,0.912633847232982,555,0.0414389743249531
554,0.210700302674087,554,0.40175179074111,554,0.5636809718388,554,0.754723534681205,554,0.916592450855978,554,0.0415809868561288
553,0.210874508194164,553,0.402752069868787,553,0.565558617545677,553,0.75606722648613,553,0.919240433883633,553,0.0413259329647759
552,0.211416371317789,552,0.403942409323538,552,0.567028420086074,552,0.7596136606488,552,0.92253683332005,552,0.0411504212497806
551,0.212381426382906,551,0.405738242067687,551,0.569443315959594,551,0.762756597193931,551,0.92651612753165,551,0.0414031794565739
550,0.21308446103602,550,0.407121278010084,550,0.571541982332188,550,0.765471028073952,550,0.929893156619928,550,0.0416399017898957
549,0.214224847485568,549,0.408658119327606,549,0.573255601805305,549,0.76827042857749,549,0.932989700092142,549,0.0418341383658318
548,0.214946798390651,548,0.410625262740707,548,0.575600290290513,548,0.770698957411313,548,0.936158982504662,548,0.0419288373958194
547,0.214941915167032,547,0.410828574434887,547,0.57634207436636,547,0.771798221847689,547,0.938590533343069,547,0.0415380022304139
546,0.215241337054322,546,0.411618497090192,546,0.578115146721687,546,0.774482684675852,546,0.940832539186429,546,0.0413077408951118
545,0.216268005699005,545,0.413026882552344,545,0.579895044831883,545,0.77726610221016,545,0.943714838334571,545,0.0418058352889804
544,0.216881215706126,544,0.414374549983636,544,0.581498197210861,544,0.778843526688989,544,0.946891927943952,544,0.0418931731758138
543,0.217427000111277,543,0.415491819346097,543,0.583461102113135,543,0.780894685132468,543,0.949104123583213,543,0.0420010870857589
542,0.217434730010916,542,0.415916646797102,542,0.584251676824414,542,0.782168403651159,542,0.951200790445447,542,0.0416575949237812
541,0.216848331787332,541,0.415597894580289,541,0.58412816018671,541,0.783145602071008,541,0.951922674394863,541,0.0406494106033004
540,0.21708727669908,540,0.416390301847537,540,0.585391165893,540,0.785083499589013,540,0.954240263837379,540,0.040682926001886
539,0.218541481810018,539,0.418140859791825,539,0.587788653816666,539,0.787468345088971,539,0.957029495471531,539,0.0414226284900116
538,0.219389680634749,538,0.419600759353179,538,0.589594891787901,538,0.788870316219836,538,0.959811594499915,538,0.0420771133516361
537,0.219481538572575,537,0.419654331928385,537,0.589574870022302,537,0.79013235116877,537,0.960212946648136,537,0.0416821841634822
536,0.219306248763345,536,0.419969200082655,536,0.590415975101781,536,0.791028290050823,536,0.961703227227054,536,0.0410720531010134
535,0.220418517359144,535,0.421686970782718,535,0.592253189077389,535,0.792799184676131,535,0.964039818798953,535,0.042293059457467
534,0.220337424227191,534,0.421855388648254,534,0.592656532561135,534,0.794058003789235,534,0.964655368425735,534,0.0420002031376841
533,0.219782433184196,533,0.42108148652917,533,0.592375241342546,533,0.793887421835004,533,0.965169167950548,533,0.0410408975806144
532,0.220081216129986,532,0.421651668396601,532,0.59291859001201,532,0.794404447817025,532,0.966267898240477,532,0.0414164776034219
531,0.221167646036179,531,0.422688353734301,531,0.594204458883655,531,0.796495942947936,531,0.968008732960026,531,0.0420393552079675
530,0.221718071024773,530,0.423648517444041,530,0.595093254808659,530,0.797060290342982,530,0.969353786332044,530,0.0425087133226964
529,0.220819604875751,529,0.42271757415166,529,0.594514717487368,529,0.796927162458278,529,0.968984691546772,529,0.0415333308640428
528,0.22009891932686,528,0.422087151149947,528,0.593806990658799,528,0.795991876928216,528,0.967539065324545,528,0.0405584857512973
527,0.220691705367705,527,0.422918299268733,527,0.594502506401833,527,0.79685771534062,527,0.968452850040123,527,0.0413378336667781
526,0.220757716090064,526,0.42298071497257,526,0.594686421349775,526,0.797118209453155,526,0.968769184735896,526,0.0413832472367263
525,0.220483669417531,525,0.422512147996331,525,0.594428738395923,525,0.79743990652922,525,0.969044709124343,525,0.0411684644312082
524,0.220905437440498,524,0.422733469788138,524,0.594718947896858,524,0.797394973108247,524,0.969440484398522,524,0.0414264158848112
523,0.220888433152721,523,0.422802026385762,523,0.594471878439573,523,0.797402481983338,523,0.969484790022895,523,0.041609987502689
522,0.220936735680225,522,0.422944758867182,522,0.594099783903637,522,0.797125956922642,522,0.969509282205779,522,0.0417508875525908
521,0.221113115659005,521,0.422893931815798,521,0.594269899916573,521,0.796007210494599,521,0.968902632740837,521,0.0419335700384029
520,0.221157092624764,520,0.422618171104097,520,0.594063085003253,520,0.796002234106328,520,0.968181970908223,520,0.0422118602537501
519,0.220667179820071,519,0.422034440562784,519,0.59333417202633,519,0.795299558271293,519,0.966904096094335,519,0.0418226801004219
518,0.219928878150341,518,0.421017227509407,518,0.592028056966398,518,0.793818539570862,518,0.965513393870133,518,0.0413927291643734
517,0.219930424460351,517,0.4204110059142,517,0.591280023933404,517,0.792398643819323,517,0.964522652375529,517,0.0412754582531575
516,0.219825674404293,516,0.420264096129987,516,0.590771809900509,516,0.791887204944493,516,0.963426984522824,516,0.0415844052992447
515,0.21989713705853,515,0.419964196069388,515,0.590228670132283,515,0.791096571129813,515,0.962415286633017,515,0.0418584240471201
514,0.219603802835454,514,0.41937572469003,514,0.589071510340378,514,0.790272116277482,514,0.960672980356465,514,0.0418866735375652
513,0.21926700486554,513,0.418706037426854,513,0.588151767828417,513,0.788007014015133,513,0.958670507087636,513,0.0419017539875681
512,0.218790656654313,512,0.417550180597319,512,0.586730714867478,512,0.787083231474658,512,0.9569425437883,512,0.0417815525481871
511,0.21835184842245,511,0.416672607901895,511,0.585240977003728,511,0.784719257847066,511,0.954932510633204,511,0.0417312243360451
510,0.217995664291796,510,0.416010041171773,510,0.584266038037293,510,0.783383888862326,510,0.952606562976626,510,0.0417711501462321
509,0.217536897190222,509,0.414838821310851,509,0.582741434160635,509,0.781432612140879,509,0.949443793251846,509,0.0415651484208392
508,0.216947076332526,508,0.413654110575623,508,0.580981715341276,508,0.779017870675402,508,0.946989376863649,508,0.0417092823773163
507,0.216555045738111,507,0.412739302361804,507,0.57949413524956,507,0.77656452110883,507,0.945200013064996,507,0.041678679470664
506,0.216209189535697,506,0.411616126207424,506,0.577822403773296,506,0.775175701875669,506,0.9418216792622,506,0.0418478487771906
505,0.21556499065403,505,0.410406561520742,505,0.576019755772964,505,0.772529125632548,505,0.938643853059297,505,0.0419517028090086
504,0.214706269352896,504,0.408808287576147,504,0.574250198470069,504,0.770049969923035,504,0.935772715124327,504,0.0416851475030538
503,0.21414867480253,503,0.407447823743794,503,0.57226376109638,503,0.767422079032142,503,0.932361744136891,503,0.0417669607560986
502,0.213556154185599,502,0.406275589967041,502,0.570248451733908,502,0.764083798220967,502,0.929396536546691,502,0.0419869726460108
501,0.213081036259929,501,0.405196326650324,501,0.567955807113554,501,0.76109390848623,501,0.925302984782044,501,0.0420846140383701
500,0.212471222638824,500,0.403471610512553,500,0.565634591356428,500,0.758093168302527,500,0.922393784352751,500,0.0422673228591714
499,0.211663513234443,499,0.401913794081523,499,0.563458897026903,499,0.755172639710993,499,0.918467440894778,499,0.0421616533037148
498,0.210754634512117,498,0.400267910208245,498,0.560907961730767,498,0.75196721198244,498,0.914274249835098,498,0.0422084653963267
497,0.209702638770457,497,0.3980556631623,497,0.558019203825438,497,0.748457184681662,497,0.910190591532178,497,0.0419568063510995
496,0.208772312640236,496,0.396195334789181,496,0.555221244910359,496,0.745125045107724,496,0.905709662766059,496,0.0417620589359557
495,0.208256189891223,495,0.394614416012519,495,0.552862629849959,495,0.741355258699189,495,0.90116925646719,495,0.0421139905986291
494,0.207978885074875,494,0.393218628751885,494,0.5502775967829,494,0.737798332783789,494,0.89690636549935,494,0.042739983779257
493,0.207127803843526,493,0.3914561587719,493,0.547550651539154,493,0.733980564527058,493,0.891941203650798,493,0.0430762723406998
492,0.205383937136181,492,0.388861978961317,492,0.54404129849709,492,0.729687369951239,492,0.88691588179612,492,0.0422189068072266
491,0.203880324018597,491,0.386273658498901,491,0.540471830563118,491,0.724968464163418,491,0.881673956450524,491,0.0416429788048799
490,0.203758682032327,490,0.384778858467604,490,0.537881271148219,490,0.721342670095947,490,0.876460022672917,490,0.0423039594521908
489,0.203080694091963,489,0.382886245877622,489,0.534959525406041,489,0.717070970350125,489,0.871076217920224,489,0.0428721364980235
488,0.201438786160675,488,0.380244149201243,488,0.53132200135607,488,0.712617672287704,488,0.865425864835343,488,0.0422234143791272
487,0.199907562996075,487,0.377413292797345,487,0.527713818733062,487,0.707593470858413,487,0.859864204054331,487,0.0415073829082618
486,0.19941374387263,486,0.375656448460392,486,0.52428579323151,486,0.703301148563733,486,0.854548158613333,486,0.0423796392100549
485,0.198699753267733,485,0.373557744922252,485,0.52103821521425,485,0.698797987318645,485,0.848669703413381,485,0.0429996994373292
484,0.196534596687875,484,0.370361529357165,484,0.51683952297866,484,0.693730090973848,484,0.842595689552969,484,0.0416913021960033
483,0.194800521142512,483,0.367591022770605,483,0.512671257837361,483,0.688560234141529,483,0.836625135973757,483,0.0407693843612262
482,0.193939370254996,482,0.365103897257067,482,0.509438874917279,482,0.683670677277303,482,0.830219228403919,482,0.0416206424506397
481,0.193083274925233,481,0.362836069396316,481,0.505803085481026,481,0.67857275003083,481,0.824068296844544,481,0.0418225090838249
480,0.192133647957371,480,0.36046786690595,480,0.502124222611425,480,0.673576360565213,480,0.817771117447342,480,0.0423501590636539
479,0.190967407462173,479,0.357969615318474,479,0.49818669609299,479,0.668194695398583,479,0.811116860434835,479,0.0423916259018369
478,0.189770468759048,478,0.355116074860273,478,0.494117187298909,478,0.662884530912898,478,0.804761051250921,478,0.0421558627617772
477,0.18832593439408,477,0.3523599897376,477,0.489983135603541,477,0.657368989461624,477,0.798438082360008,477,0.0421975963254222
476,0.187056035273837,476,0.349679942449235,476,0.485660582927796,476,0.651914255766997,476,0.791336980349165,476,0.0423682521592919
475,0.185812153828142,475,0.346962090536949,475,0.481856801844085,475,0.646372643723484,475,0.784466999599801,475,0.0425054874296882
474,0.184492801181583,474,0.344073796472368,474,0.477385825172256,474,0.640402526235371,474,0.777358724334474,474,0.0426010182713302
473,0.183042170270085,473,0.341063257917408,473,0.473166787767691,473,0.63479463364584,473,0.770345585959816,473,0.0425539354425628
472,0.181840995213925,472,0.338155290583697,472,0.468997069938469,472,0.629140019854646,472,0.763576197896118,472,0.0425726366221755
471,0.180532770571454,471,0.335373281296462,471,0.464356792770324,471,0.622978712313939,471,0.756111181193105,471,0.042577890228206
470,0.179021747083957,470,0.332378928857368,470,0.460054056898579,470,0.617297874993743,470,0.748741505735796,470,0.0427432685410603
469,0.177808585838143,469,0.329435450974604,469,0.455571631964152,469,0.611426492419043,469,0.7413621082854,469,0.0428227102161464
468,0.176314181502972,468,0.326471246487593,468,0.451262293938018,468,0.605387769006724,468,0.73380316152555,468,0.0428405944525048
467,0.174932390402822,467,0.32343467293003,467,0.446500900896674,467,0.599351978201892,467,0.726418545150335,467,0.0425715801982027
466,0.173319336719731,466,0.32039425489993,466,0.442101134049748,466,0.593324886317988,466,0.719112351286335,466,0.0428034840550617
465,0.171874958107289,465,0.31708792338213,465,0.437490268121812,465,0.587251031071571,465,0.711650993910569,465,0.0428371946767588
464,0.170600662853967,464,0.314114778631294,464,0.432832350584642,464,0.581078095776643,464,0.703986175533668,464,0.0427469246529788
463,0.169247719687077,463,0.310981018784074,463,0.428074076522029,463,0.574452160664245,463,0.696192404065725,463,0.0428794223505301
462,0.167758132893475,462,0.307991270623663,462,0.423761995304437,462,0.568442692197866,462,0.688736485020115,462,0.0431538022252508
461,0.166661430994911,461,0.305057782555371,461,0.419325313599835,461,0.562354995224492,461,0.681123689571261,461,0.0432990650748088
460,0.164595929876663,460,0.301625988784214,460,0.414265614965123,460,0.555886355470974,460,0.673614939226017,460,0.0428703079110924
459,0.162849345806714,459,0.297997247912868,459,0.409353369678982,459,0.549813216345816,459,0.665894429541151,459,0.0421954282493324
458,0.161626835489444,458,0.295231233236129,458,0.40481248960924,458,0.543535663451739,458,0.657943998061447,458,0.0426607856963451
457,0.160354503670178,457,0.292240499672538,457,0.400110682038286,457,0.537181348244213,457,0.650352787882925,457,0.0429936690729481
456,0.158887445333108,456,0.289069618621224,456,0.395511227923676,456,0.530812717038796,456,0.642515381835252,456,0.043041914332717
455,0.15766433536364,455,0.286211178362382,455,0.391019108722401,455,0.524911600801343,455,0.634852137245189,455,0.0431584052826994
454,0.156247568568485,454,0.282927802998766,454,0.386441206859464,454,0.518460369581937,454,0.627305145297736,454,0.0434264388030622
453,0.154513629644376,453,0.279820205251883,453,0.381788175152462,453,0.512170405012489,453,0.619639059650686,453,0.0433298681861177
452,0.153168630413001,452,0.27644330438343,452,0.376735099411084,452,0.505986589759081,452,0.61196053517467,452,0.0428721079262935
451,0.151593799161294,451,0.273520460041619,451,0.372249356846083,451,0.499649543891822,451,0.604113011736725,451,0.0432940887325696
450,0.150487183856821,450,0.270396374004308,450,0.367600618044146,450,0.493773822044769,450,0.596646991755128,450,0.043480969495887
449,0.149122865830186,449,0.267558672042329,449,0.363228199770502,449,0.487737730242319,449,0.589278876952725,449,0.043721690159845
448,0.147806147537002,448,0.264322997557787,448,0.358611777229307,448,0.481611529491382,448,0.581647689840726,448,0.0437183693620321
447,0.14620428172474,447,0.261188944758864,447,0.353996357532013,447,0.475374118644998,447,0.573915550216899,447,0.0434973643744517
446,0.144524201774719,446,0.257987736424973,446,0.349098146477928,446,0.469051569721927,446,0.566393869087187,446,0.0431793626764927
445,0.143151176002124,445,0.255035381898753,445,0.344968050437,445,0.463236459867276,445,0.559262269574141,445,0.0432517349321741
444,0.14193718164306,444,0.25197189266402,444,0.340422472380134,444,0.45742099606514,444,0.551807207081434,444,0.0434026088086493
443,0.14091702873271,443,0.249623749807846,443,0.336435886148971,443,0.451799100160089,443,0.544668943145244,443,0.0438596974872555
442,0.13945743891597,442,0.246530336998948,442,0.332081318314209,442,0.445633964614518,442,0.537612190580637,442,0.0440208378765039
441,0.137992316621655,441,0.243484422666478,441,0.327517824017937,441,0.439816769023236,441,0.530357267751872,441,0.0436642668366619
440,0.136389605807145,440,0.240325591578786,440,0.322973275829346,440,0.433832557178428,440,0.523217621238299,440,0.0434290135505968
439,0.135201938109051,439,0.237756577089748,439,0.318942358827584,439,0.4285834426219,439,0.516298060921353,439,0.0435538212829551
438,0.133958268799351,438,0.235106581156777,438,0.314951905702532,438,0.423204745022166,438,0.509882107685368,438,0.043634212790152
437,0.132798871275986,437,0.232196907913705,437,0.310607065884427,437,0.417315987768176,437,0.502832070522312,437,0.043849474278776
436,0.131655950545289,436,0.229655581408512,436,0.306545657383033,436,0.411904032642409,436,0.496224565100754,436,0.0437939237951823
435,0.130469744179402,435,0.227130611470858,435,0.302902761679021,435,0.406712392503017,435,0.489775445572402,435,0.0440042227007645
434,0.12917024119193,434,0.224245211000579,434,0.298868726830424,434,0.401324479453744,434,0.483421993652345,434,0.0438013110271865
433,0.12783625408907,433,0.221514716143567,433,0.295106603074464,433,0.396401576787102,433,0.476983692586634,433,0.0438187201949434
432,0.12658124885262,432,0.219116752821276,432,0.291278672065633,432,0.391261969757063,432,0.47077484609331,432,0.0437158215257522
431,0.125654814794327,431,0.216671799227415,431,0.287659808967445,431,0.386331212484293,431,0.464746302287327,431,0.0440638684070734
430,0.124543275573118,430,0.214342036228214,430,0.284068810534925,430,0.381308794631395,430,0.45859155282113,430,0.0438372468356645
429,0.123427419817815,429,0.211952796476407,429,0.28072237458444,429,0.376649040187326,429,0.452927110639626,429,0.0441790576516683
428,0.122761395412947,428,0.209829524354259,428,0.277410451028205,428,0.372057073532449,428,0.447671886943904,428,0.0441653880765078
427,0.121514271587517,427,0.207548940498986,427,0.27408320572321,427,0.367831511654487,427,0.442024914028271,427,0.0442535171059548
426,0.120688008046849,426,0.205550620638019,426,0.270916776925457,426,0.363578648715826,426,0.436899134822619,426,0.0445133653761753
425,0.119658577764895,425,0.203383623395938,425,0.267716779658272,425,0.359365548352724,425,0.431935102728466,425,0.0442156265967067
424,0.118357559313671,424,0.201289926413074,424,0.264519102291061,424,0.355114520951254,424,0.426742998325609,424,0.0438783404281571
423,0.117662974198359,423,0.19948278574886,423,0.261819738385788,423,0.351389556033114,423,0.421943058780875,423,0.0441391677686037
422,0.116944185290728,422,0.197554321204005,422,0.259167701224335,422,0.347712986146673,422,0.417538806467242,422,0.044266300882862
421,0.115933452000272,421,0.195760879198244,421,0.256432984516606,421,0.344136197702643,421,0.413231355443609,421,0.043914082128704
420,0.114992965126439,420,0.193869707266611,420,0.253659995345873,420,0.340622455037465,420,0.40905499863301,420,0.0437844465613896
419,0.114472200928882,419,0.192494797138987,419,0.251450503881869,419,0.33746323221635,419,0.405196260845049,419,0.0440794830692735
418,0.113821676827548,418,0.190857523525393,418,0.249328347701462,418,0.334458371303132,418,0.401288870129454,418,0.0439210990739925
417,0.113243682647368,417,0.189629440212057,417,0.247230232651626,417,0.331412106188327,417,0.3979604525967,417,0.0442217885951303
416,0.112814819672529,416,0.188360562342432,416,0.245425297999324,416,0.328649237582051,416,0.394951965663848,416,0.0442224477908361
415,0.11219954986275,415,0.187049544375463,415,0.243547232843317,415,0.326340615171716,415,0.391792250650407,415,0.0440806864243392
414,0.111783569681649,414,0.186196894900018,414,0.241794366606627,414,0.324168872944952,414,0.389012808886715,414,0.044452854982212
413,0.11143499867453,413,0.18508753417721,413,0.240426039233254,413,0.322146483608903,413,0.386388805606092,413,0.0444501021031859
412,0.111255466934394,412,0.184442963477446,412,0.239056084375244,412,0.320345592443201,412,0.384339473020024,412,0.0447665393600787
411,0.110849845360062,411,0.183616705292562,411,0.237674955506443,411,0.318426992438298,411,0.382237562484049,411,0.0445059086636489
410,0.110127091077151,410,0.182550833873314,410,0.236761161582312,410,0.316776098442222,410,0.380181525636639,410,0.0443446455644275
409,0.109863981323398,409,0.181692802472445,409,0.235522986038005,409,0.315676524326686,409,0.37843741431107,409,0.0444889594587355
408,0.110072388472846,408,0.181689852506474,408,0.234947236270783,408,0.314571795446372,408,0.377459683386514,408,0.0446188628968627
407,0.110070053758905,407,0.181458362336689,407,0.234418344116482,407,0.31392554122977,407,0.376729090426,407,0.0447328508187289
406,0.109950833268578,406,0.1810435459783,406,0.233913338554118,406,0.313223616297279,406,0.375925098879334,406,0.0447542860703337
405,0.109957201983367,405,0.180801566167095,405,0.233640131221073,405,0.312778360892056,405,0.375510093623595,405,0.0446447392312039
404,0.109387022104332,404,0.180456164864323,404,0.233524532153029,404,0.312193727138231,404,0.375106874189237,404,0.0442642084451913
403,0.109652741883375,403,0.180670090601093,403,0.233432624485418,403,0.31239791532713,403,0.375426335201931,403,0.0441175909320945
402,0.109955201329917,402,0.181016722490151,402,0.234194751900589,402,0.312971356173675,402,0.37619930161956,402,0.044593447067142
401,0.110467035385063,401,0.181518238314488,401,0.234667467974216,401,0.3140290448057,401,0.377482062521671,401,0.0449010900197425
400,0.110810486739246,400,0.182070366808842,400,0.235424556164243,400,0.31510153493382,400,0.378682438995204,400,0.0447934863351384
399,0.111339486711791,399,0.182748642308188,399,0.23618639998284,399,0.316187857841704,399,0.380330240277972,399,0.0448628559425144
398,0.111516074870853,398,0.183537539191905,398,0.23732877131811,398,0.317586857664766,398,0.382260470079025,398,0.0449073478694394
397,0.112364584960951,397,0.184778676846903,397,0.239098684219557,397,0.319897791218114,397,0.384894865875611,397,0.0449798938370466
396,0.113495771302706,396,0.186307553677867,396,0.240806113553111,396,0.322279420351479,396,0.387961133544955,396,0.0456917566809331
395,0.114015971107568,395,0.187375802233205,395,0.242498654877606,395,0.324477228234748,395,0.390588447294003,395,0.0456506924354767
394,0.114449964275142,394,0.18815706785644,394,0.243970406504595,394,0.326664164187355,394,0.393766303815796,394,0.0454895211710382
393,0.115690959383084,393,0.190213844994311,393,0.246910994444124,393,0.330376247564474,393,0.39818831960999,393,0.045707631295411
392,0.116417659264818,392,0.191637115010441,392,0.24884592965501,392,0.333662629699741,392,0.402415891894596,392,0.0452249803908809
391,0.116879842277777,391,0.193221228998317,391,0.251156995594523,391,0.336684366686249,391,0.406210912163323,391,0.0452503470213654
390,0.118555730541241,390,0.196001056996247,390,0.254869487138332,390,0.341235819713093,390,0.412164110812171,390,0.0460034596433797
389,0.120337376147243,389,0.198817245011302,389,0.25840560650708,389,0.346493590119008,389,0.418750470087507,389,0.046739344170811
388,0.121625303344488,388,0.201164523795542,388,0.261831753388629,388,0.351277249521162,388,0.424670095736475,388,0.04673519306144
387,0.123139287628097,387,0.203712583697409,387,0.265178398521599,387,0.356251855706292,387,0.430982055676864,387,0.0468014714160693
386,0.124643564327331,386,0.206888897664389,386,0.269411393012725,386,0.362110250779939,386,0.438168423006589,386,0.0473217862946609
385,0.126518995518749,385,0.210189402959768,385,0.274149238640538,385,0.368470897204164,385,0.445961672879819,385,0.0476590717986427
384,0.128383356386873,384,0.21336953089446,384,0.278532365934943,384,0.374672315351806,384,0.454179178869636,384,0.0477912852395284
383,0.130220083143065,383,0.216650057426247,383,0.283479360692279,383,0.381532730499703,383,0.462543386181387,383,0.0480657508238004
382,0.13257853301694,382,0.220705732882471,382,0.28898309913476,382,0.38937810465561,382,0.47219805619718,382,0.0485051700342178
381,0.13470216500209,381,0.224690147782401,381,0.294631854939691,381,0.39657488546533,381,0.481772883488988,381,0.0488126429976494
380,0.137001143108813,380,0.22860886130389,380,0.300310961303501,380,0.4050294765149,380,0.491879766089628,380,0.049108768635071
379,0.139581972099045,379,0.233605909272381,379,0.307552606061956,379,0.414417062885621,379,0.503570991741759,379,0.0497674010366157
378,0.141242037329875,378,0.237280086144433,378,0.313394010706295,378,0.422115954835698,378,0.513227918855217,378,0.0494761928493019
377,0.142879011787063,377,0.240392989345453,377,0.318349724037413,377,0.429678493917529,377,0.522751128950903,377,0.0488184071176927
376,0.145052982214066,376,0.245026780526263,376,0.325290954627289,376,0.43856472499942,376,0.53363769620504,376,0.0491757001387952
375,0.147575882638728,375,0.249519726956655,375,0.332365378974692,375,0.448350042314505,375,0.545560245362798,375,0.0491942827797744
374,0.150096554539135,374,0.254310995351109,374,0.340085029770281,374,0.458119316533446,374,0.557811319644554,374,0.0490604533411401
373,0.152832367971946,373,0.259569908674847,373,0.347401774560668,373,0.468083825718991,373,0.570390414962298,373,0.0494181196644286
372,0.155180367739778,372,0.264169116644497,372,0.354749418538306,372,0.477920105155861,372,0.582357085718118,372,0.0492177658814518
371,0.157429454792391,371,0.268567559635764,371,0.361416817486868,371,0.487111174188676,371,0.594003875171801,371,0.0492010086741991
370,0.159931107816782,370,0.273463657079342,370,0.368737013632541,370,0.497036296601323,370,0.60644001062498,370,0.0492554864593704
369,0.163138730936444,369,0.278924088336065,369,0.376778459013986,369,0.507780696290459,369,0.619778872118183,369,0.0497960245567876
368,0.16576120050476,368,0.283999310680679,368,0.384181824341374,368,0.51820710801199,368,0.632958304738764,368,0.0499381540471795
367,0.168221681210386,367,0.288406809673969,367,0.39144777494824,367,0.527916815648587,367,0.644871931360909,367,0.0500225826913062
366,0.171079807971567,366,0.293454042123329,366,0.398717600537535,366,0.538396547576441,366,0.657771215412011,366,0.0500038483966973
365,0.174165142271369,365,0.298907519307708,365,0.406675381238867,365,0.549176310803009,365,0.67139137318825,365,0.0509136121492587
364,0.177166040157295,364,0.304355503946608,364,0.414351161260396,364,0.559972555647893,364,0.684777171708805,364,0.0510112145232584
363,0.180470049381577,363,0.309677168015442,363,0.422373665191741,363,0.570878641308803,363,0.698785179027437,363,0.052128785401688
362,0.182069579465093,362,0.313574383664326,362,0.428379770255016,362,0.579953542771221,362,0.7100044343978,362,0.051295239059003
361,0.184508873972177,361,0.317533856989722,361,0.434892248999962,361,0.589003079980813,361,0.721829468437204,361,0.0511575572974047
360,0.187811473559841,360,0.323320319974316,360,0.443027049832762,360,0.600794872956906,360,0.736094982049237,360,0.051973828743698
359,0.191807340395573,359,0.329835025318879,359,0.452183295962742,359,0.613524805116182,359,0.75221206727903,359,0.0528950425934031
358,0.194894580054327,358,0.334796588699209,358,0.459983653283032,358,0.624563320845398,358,0.76554193175011,358,0.0534592205553719
357,0.197574638141185,357,0.339578508290657,357,0.467067769662113,357,0.635148122064656,357,0.778911357708775,357,0.0537864535154437
356,0.201260547355254,356,0.345783822601372,356,0.476317799006976,356,0.647539768241263,356,0.794548981908509,356,0.0545822362824357
355,0.205248709600669,355,0.351845008899859,355,0.484894800791881,355,0.660033034564205,355,0.810076946213088,355,0.0549643404234363
354,0.208726976711551,354,0.357682672855921,354,0.493061359169767,354,0.672158502639112,354,0.825360978995916,354,0.0558061135749258
353,0.212558165805761,353,0.363455733763943,353,0.501856425545101,353,0.684631822037161,353,0.840781078658293,353,0.0563383674286582
352,0.217099737351268,352,0.370140395462677,352,0.51127055817026,352,0.698145697758694,352,0.857906296116009,352,0.0578675050723708
351,0.221085508497439,351,0.376644572845048,351,0.520453911596129,351,0.711721096846129,351,0.874127389959124,351,0.0590406026654847
350,0.225161233011813,350,0.382764993081214,350,0.529301704629488,350,0.724978289418492,350,0.89028368782113,350,0.0596833862415736
349,0.229652067356164,349,0.389408276935472,349,0.538791092818169,349,0.738540289275645,349,0.907337794165482,349,0.0608394881720396
348,0.234761059611567,348,0.396841982009329,348,0.548803637271804,348,0.753502762283013,348,0.926487305233638,348,0.0626527933008973
347,0.239601804046624,347,0.404007603273184,347,0.55872239774326,347,0.768171641616275,347,0.94437054084655,347,0.0639847172468192
346,0.244154624450429,346,0.411247294376091,346,0.56805958418053,346,0.782720507353183,346,0.962123264814625,346,0.0646934175704413
345,0.248929218966447,345,0.417984211056183,345,0.578022262604753,345,0.797337057661304,345,0.980459850295158,345,0.0660674281466173
344,0.253975965957891,344,0.425249973572112,344,0.588034806459043,344,0.812795449121095,344,0.999566393588668,344,0.0675463124117091
343,0.260181011292688,343,0.433964336814987,343,0.599287053002837,343,0.829849882857331,343,1.01981637967964,343,0.0697886394322167
342,0.266446881957891,342,0.442704919501205,342,0.611000401714773,342,0.847631165371192,342,1.04220438589688,342,0.0717360142773743
341,0.272615558032848,341,0.45166040558453,341,0.622820053078567,341,0.865587914299522,341,1.06385832913303,341,0.0738501552919863
340,0.279791264603855,340,0.461555479285078,340,0.635556643677523,340,0.886477614127436,340,1.08844740622034,340,0.0765850690122127
339,0.287322479673814,339,0.47188758182963,339,0.649207606405165,339,0.906773214982083,339,1.11392958119003,339,0.0791971299682534
338,0.294849079300583,338,0.482102644840741,338,0.662658905484206,338,0.928139845607753,338,1.13927295345287,338,0.0814869097098426
337,0.303286867513302,337,0.493520518523243,337,0.676839766978655,337,0.950179320094374,337,1.16623650397956,337,0.0847325326481102
336,0.312100325646264,336,0.505870122142789,336,0.692386069161769,336,0.9751424609644,336,1.19599607734335,336,0.0880338201046777
335,0.322165751614884,335,0.519224421393294,335,0.709136484444391,335,1.00064594027451,335,1.2271617829014,335,0.0918605191751111
334,0.332099475059351,334,0.532617861934479,334,0.726190457746695,334,1.02855698043956,334,1.25954804485873,334,0.0954272684251451
333,0.342690610743829,333,0.547097752297703,333,0.744113371972106,333,1.05711770426862,333,1.29487292217037,333,0.09955400672678
332,0.354667489974902,332,0.563457191749784,332,0.763800414131459,332,1.08853543468968,332,1.33255274289546,332,0.104318795676905
331,0.368320052371381,331,0.581622153428267,331,0.786043561471422,331,1.12378238081606,331,1.37520597040998,331,0.109583639765542
330,0.382130343539746,330,0.600392155157012,330,0.808831693736784,330,1.16070293010047,330,1.41867039954062,330,0.115419832196782
329,0.397565529021944,329,0.621384464945184,329,0.834369405316849,329,1.20073556730476,329,1.46691510525809,329,0.121848822848994
328,0.415316488106083,328,0.644985617400191,328,0.863213559372928,328,1.24643706811929,328,1.52169922998336,328,0.129108661088268
327,0.432950603937054,327,0.668874277959103,327,0.891192420397368,327,1.29120230217212,327,1.57598263352847,327,0.136592847744839
326,0.451570151550772,326,0.694340207802081,326,0.921903282673299,326,1.34104746163287,326,1.63397991309115,326,0.144268677148961
325,0.47282601527429,325,0.722792262729256,325,0.956471572407852,325,1.39440679817075,325,1.69851162946923,325,0.153177875508247
324,0.492608519310302,324,0.749662236763716,324,0.988867553330234,324,1.44623102238337,324,1.76076730747964,324,0.160979909462262
323,0.515572309580223,323,0.780917231999089,323,1.02512860391805,323,1.5071555875886,323,1.8320118986373,323,0.171106562073562
322,0.544700426323969,322,0.819933928686162,322,1.07194698724188,322,1.57844599341204,322,1.9174618960296,322,0.183931141901483
321,0.575193736614015,321,0.859860829631993,321,1.11803453484663,321,1.65551842872959,321,2.00632324798604,321,0.197397284581724
320,0.604660291851004,320,0.899017655331821,320,1.16461536705336,320,1.7292886561821,320,2.09506136677778,320,0.210321682481813
319,0.635184383531586,319,0.939178676373711,319,1.21067131550832,319,1.80555124496371,319,2.18247448092915,319,0.223540651696274
318,0.670739376271761,318,0.985395511297468,318,1.26454306825908,318,1.89326159756446,318,2.28301269602437,318,0.239471307931846
317,0.709462479275398,317,1.03499635546345,317,1.32047006065081,317,1.98600274757362,317,2.39191923974168,317,0.257182683614175
316,0.751290993830207,316,1.08787634892366,316,1.38044807228365,316,2.08285591773654,316,2.50732032649035,316,0.276210789565877
315,0.789828145326067,315,1.13607832570937,315,1.4340485610438,315,2.17597065285394,315,2.61173569593438,315,0.293687272398489
314,0.832040349969557,314,1.18768643299918,314,1.49210010043325,314,2.27205914257835,314,2.72206290740085,314,0.313895196236157
313,0.88302052260431,313,1.24887071045865,313,1.55615368195007,313,2.38316408107712,313,2.84745467074867,313,0.338224122824075
312,0.932953734590541,312,1.30700621649704,312,1.61848431672046,312,2.49095360687435,312,2.9641561604328,312,0.362287865818605
311,0.983369875922478,311,1.36490429279027,311,1.67874360329014,311,2.59522735329714,311,3.08856882194182,311,0.386772303313628
310,1.03871755633549,310,1.42631050109606,310,1.74018721969956,310,2.71012532446275,310,3.20192922413411,310,0.414598789436577
309,1.09528439663102,309,1.48609608422685,309,1.79973831980694,309,2.81814655258286,309,3.30919753279109,309,0.443233400481181
308,1.15526289376124,308,1.54977879567733,308,1.86053786755452,308,2.92800869798306,308,3.43109639396794,308,0.47479927615416
307,1.22161503956751,307,1.61425250710551,307,1.92070281808694,307,3.05175769810883,307,3.52550037120084,307,0.509717040491546
306,1.2907776724247,306,1.68101037002665,306,1.98009020867841,306,3.1634933393035,306,3.61912127785555,306,0.547572160366465
305,1.36338378547425,305,1.74794268439633,305,2.0349461779138,305,3.26342874440201,305,3.7020784870252,305,0.587404819940625
304,1.43960183110789,304,1.81252905497588,304,2.08641966535856,304,3.38282056364701,304,3.7581499099125,304,0.630247649337348
303,1.51961547312267,303,1.87776782632742,303,2.13388553843934,303,3.47212985616249,303,3.79035686154491,303,0.675945987225076
302,1.60057334485432,302,1.93913344038921,302,2.17479768535195,302,3.56103654272344,302,3.86195923039017,302,0.723253553609939
301,1.6859580211778,301,2.00038948499993,301,2.21104670837606,301,3.63285029714255,301,3.86811677510295,301,0.773986788264518
300,1.77902434865792,300,2.06372284034868,300,2.24276573441579,300,3.71795961033265,300,3.87264940594209,300,0.830848902883877
